#{"prms":{"sampleRate":200000,"runID":0,"groupID":"21-01-19_11-07-06","param":"PLLFreq","from":6834.1,"to":6835.1,"by":0.005},"mmexec":"","sender":"MOTMaster","cmd":"scan","id":492379761}
#{"params":{"runID":0.0,"aChn":0.0,"ElapsedTime":0.0,"PLLFreq":6834.1,"ChirpRate":0.05,"ChirpDuration":0.2,"Pulse1Power":22.0,"Pulse1Duration":30.0,"Pulse1Phase":0.0,"Pulse2Power":22.0,"Pulse2Duration":30.0,"Pulse2Phase":0.0,"Pulse3Power":22.0,"Pulse3Duration":30.0,"Pulse3Phase":0.0,"VelPulsePower":22.0,"VelPulseDuration":100.0,"VelPulsePhase":0.0,"IntTime1":10.0,"IntTime2":10.0,"test":0.0,"AnalogClockFrequncy":100000.0,"AnalogLength":0.0,"HSClockFrequency":200000000.0,"2DCoil":9.0,"AnalogClockFrequency":100000.0,"yBiasImg":9.0,"2DAtten":4.15,"YpFreqMOT":6.785,"YmFreqLaunch":6.815,"YmFreqMOT":6.828,"DetFreq":3.8,"DetAttn":0.0,"y2DBias":0.0,"ZmAttenState":9.0,"YmAttenMOT":1.78,"YmAttenImg":2.65,"x2DBias":0.0,"PushAtten":7.5,"XpFreqMOT":6.735,"3DCoil":3.1,"2DFreq":7.11,"2DPushFreq":7.1,"ZmAttenImg":10.0,"mwTime":10.0,"YBiasState":9.9,"yBiasState":9.9,"zBiasMW":9.0,"YBiasMW":9.0,"zBiasInt":9.0,"YpAttenLaunch":2.5,"XpFreqLaunch":6.741,"YpFreqLaunch":6.799,"xBiasInt":9.0,"ZmAttenMOT":3.82,"ZpAttenMOT":6.9,"xBiasMot":-2.5,"yBiasMot":-0.25,"zBiasMot":-0.5,"XBiasState":0.0,"xBiasState":-2.5,"zBiasImg":-0.5,"ZBiasState":-0.5,"YBiasInt":-0.5,"ZpFreqMOT":6.807,"ZmFreqMOT":6.833,"XmFreqLaunch":6.896,"XmFreqMOT":6.901,"XmAttenLaunch":9.0,"ZpAttenState":3.2,"ZpAttenImg":6.7,"XpAttenLaunch":4.0,"XpAttenImg":2.8,"XpAttenMOT":6.2,"YpAttenMOT":6.1,"YpAttenImg":4.0,"XmAttenMOT":3.85,"XmAttenImg":2.5,"xBiasMW":-3.5,"":0.0,"ZmFreqLaunch":6.878,"ZpFreqLaunch":6.762,"rPhase0":0.0,"rPhase":50.0,"PLLFreqX":6834.51,"PLLFreqY":6834.48,"ChirpRateX":0.65,"ChirpRateY":0.32,"MWFreq":6834.682,"xBiasImg":-2.5}}
#{"steps":{"Initialization 1":0.1,"Initialization 2":1.0,"2D3D":200.0,"3Donly":10.0,"B field off":6.0,"Launch":1.0,"Freq Ramp":0.1,"Wait":5.74,"Intensity ramp":0.2,"BSwitch0":1.0,"Step1":0.1,"Step2":0.06,"BSwitch1":2.0,"BSwitch2":1.0,"MW0":0.095,"Wait2":40.71,"VelSel":0.058,"B3":1.0,"Pulse 1":0.03,"Delay":0.1,"Dark2":0.4,"Pulse 2":0.07,"Dark 3":0.5,"Pulse 3":0.03,"Detection B field 1":3.21,"Detection field 2":2.5,"Dwell":2.0,"N2":0.3,"NTot":0.3,"BlowAway2":100.0,"DetWait":1.7,"B2":0.3,"BTot":0.3,"Bg":0.3,"Off":300.0}}


XAxis	N1	N2	RN1	RN2	NTot
6834.1	1.7242556	0.087955199	0.95146525	0.048534751	1.8122108
6834.105	1.7277104	0.087666795	0.95170877	0.048291228	1.8153772
6834.11	1.6350661	0.087929112	0.94896729	0.051032707	1.7229953
6834.115	1.7136263	0.093117013	0.9484614	0.051538595	1.8067433
6834.12	1.777177	0.0884201	0.95260493	0.047395066	1.8655971
6834.125	1.657251	0.092656748	0.9470505	0.052949505	1.7499077
6834.13	1.7648225	0.10035331	0.94619633	0.053803673	1.8651758
6834.135	1.6592862	0.090417659	0.94832402	0.051675978	1.7497039
6834.14	1.804275	0.0963557	0.9493033	0.050696697	1.9006307
6834.145	1.8565177	0.099295258	0.9492307	0.050769301	1.955813
6834.15	1.8285101	0.10600004	0.94520574	0.054794256	1.9345101
6834.155	1.8135739	0.10084087	0.94732549	0.052674513	1.9144148
6834.16	1.7921319	0.098481845	0.94791012	0.052089882	1.8906137
6834.165	1.7828876	0.0953089	0.9492551	0.050744902	1.8781965
6834.17	1.9398876	0.097096393	0.95233326	0.047666743	2.036984
6834.175	1.817429	0.10692943	0.94443373	0.055566275	1.9243585
6834.18	1.880117	0.10014177	0.94942996	0.050570042	1.9802587
6834.185	1.821413	0.10493611	0.94552591	0.054474087	1.9263491
6834.19	1.9365818	0.095939352	0.95279786	0.047202143	2.0325211
6834.195	1.8157843	0.10757011	0.94407161	0.055928389	1.9233544
6834.2	1.8932044	0.10544532	0.94724172	0.052758281	1.9986497
6834.205	1.9080275	0.10602988	0.94735509	0.052644914	2.0140574
6834.21	1.9166753	0.09926446	0.9507602	0.049239795	2.0159397
6834.215	1.8744411	0.10767915	0.94567476	0.054325238	1.9821202
6834.22	1.8277275	0.11003314	0.94321634	0.05678366	1.9377606
6834.225	1.8785871	0.11093184	0.94424188	0.055758125	1.9895189
6834.23	1.8733976	0.10993405	0.94457102	0.055428982	1.9833317
6834.235	1.8976567	0.11106266	0.94470972	0.055290279	2.0087194
6834.24	1.9075665	0.10987885	0.94553565	0.054464348	2.0174454
6834.245	1.842562	0.11183228	0.94277906	0.057220944	1.9543942
6834.25	1.8456738	0.10836568	0.94454274	0.055457262	1.9540394
6834.255	1.8800196	0.11500304	0.94235502	0.057644981	1.9950226
6834.26	1.7880351	0.1174174	0.93837821	0.061621791	1.9054525
6834.265	1.7832919	0.1099781	0.94191103	0.058088969	1.89327
6834.27	1.8804312	0.10979118	0.94483472	0.055165284	1.9902223
6834.275	1.8171026	0.12309325	0.93655627	0.063443726	1.9401958
6834.28	1.7849218	0.1248904	0.93460593	0.065394074	1.9098122
6834.285	1.8620646	0.11599855	0.94135751	0.058642492	1.9780631
6834.29	1.9194742	0.12027067	0.94103641	0.058963586	2.0397448
6834.295	1.7758766	0.12688189	0.93331687	0.066683129	1.9027585
6834.3	1.7976699	0.12341004	0.93576007	0.06423993	1.92108
6834.305	1.8686091	0.13082125	0.93457074	0.065429263	1.9994303
6834.31	1.8672541	0.12724082	0.93620399	0.063796012	1.9944949
6834.315	1.8513164	0.13758517	0.93082354	0.069176458	1.9889016
6834.32	1.8561226	0.13452558	0.93242122	0.06757878	1.9906482
6834.325	1.7798738	0.14772958	0.92336101	0.076638994	1.9276034
6834.33	1.8463054	0.14488736	0.9272359	0.072764104	1.9911927
6834.335	1.8159069	0.14202374	0.92746233	0.072537675	1.9579307
6834.34	1.8709335	0.15052555	0.92553618	0.074463815	2.021459
6834.345	1.7767334	0.15686601	0.91887358	0.081126424	1.9335995
6834.35	1.7596182	0.16616619	0.91371506	0.086284943	1.9257844
6834.355	1.7194818	0.16183002	0.91398022	0.086019779	1.8813118
6834.36	1.8811204	0.16265147	0.92041603	0.079583965	2.0437719
6834.365	1.828703	0.16855954	0.91560472	0.084395281	1.9972626
6834.37	1.7799319	0.17540439	0.91029452	0.089705483	1.9553363
6834.375	1.7662167	0.178216	0.9083455	0.091654497	1.9444327
6834.38	1.6802637	0.1876557	0.89953758	0.10046242	1.8679194
6834.385	1.7864646	0.17410236	0.91119795	0.088802046	1.960567
6834.39	1.7881988	0.18771372	0.90499898	0.095001024	1.9759126
6834.395	1.7718013	0.19612781	0.90033797	0.099662027	1.9679291
6834.4	1.7039543	0.1894558	0.89993937	0.10006063	1.8934101
6834.405	1.682286	0.20929798	0.88935306	0.11064694	1.891584
6834.41	1.7849126	0.20025363	0.89912501	0.10087499	1.9851662
6834.415	1.7467522	0.19890996	0.89776747	0.10223253	1.9456622
6834.42	1.7111812	0.20615135	0.89248013	0.10751987	1.9173325
6834.425	1.7817776	0.20556425	0.89656321	0.10343679	1.9873418
6834.43	1.8129841	0.20609339	0.89792695	0.10207305	2.0190775
6834.435	1.7894678	0.21297829	0.89364094	0.10635906	2.0024461
6834.44	1.7450476	0.20798464	0.89350681	0.10649319	1.9530323
6834.445	1.7381334	0.21216685	0.89121323	0.10878677	1.9503002
6834.45	1.8256282	0.21338555	0.89534865	0.10465135	2.0390138
6834.455	1.7151348	0.22394081	0.88451156	0.11548844	1.9390756
6834.46	1.7447253	0.22675857	0.88498076	0.11501924	1.9714838
6834.465	1.7707576	0.21549679	0.89150595	0.10849405	1.9862544
6834.47	1.7613791	0.21089744	0.89306903	0.10693097	1.9722765
6834.475	1.7695615	0.22093941	0.88900311	0.11099689	1.9905009
6834.48	1.7918278	0.21150858	0.89442184	0.10557816	2.0033364
6834.485	1.6935025	0.22052908	0.88478295	0.11521705	1.9140316
6834.49	1.8143465	0.20856352	0.89689926	0.10310074	2.02291
6834.495	1.7941225	0.199701	0.89984018	0.10015982	1.9938235
6834.5	1.7221704	0.20633126	0.89300955	0.10699045	1.9285017
6834.505	1.7037401	0.20731819	0.89151655	0.10848345	1.9110583
6834.51	1.7378016	0.20396287	0.89496003	0.10503997	1.9417644
6834.515	1.7373784	0.20801859	0.89307139	0.10692861	1.945397
6834.52	1.823124	0.20379123	0.89945745	0.10054255	2.0269153
6834.525	1.8208989	0.19128885	0.90493489	0.095065111	2.0121878
6834.53	1.8138692	0.17994255	0.90974948	0.090250525	1.9938117
6834.535	1.7895791	0.18728127	0.90526328	0.094736722	1.9768604
6834.54	1.7542698	0.18281582	0.90562326	0.094376736	1.9370857
6834.545	1.7176288	0.17503163	0.90752085	0.092479155	1.8926604
6834.55	1.7704646	0.17657997	0.90930872	0.090691283	1.9470446
6834.555	1.8400525	0.1715121	0.91473697	0.085263035	2.0115646
6834.56	1.7441415	0.17143049	0.91050689	0.089493108	1.915572
6834.565	1.7322319	0.17341912	0.90899744	0.091002557	1.905651
6834.57	1.8313459	0.16837691	0.91579987	0.084200125	1.9997228
6834.575	1.8067341	0.17581841	0.91131715	0.088682853	1.9825525
6834.58	1.8124507	0.1793668	0.90994817	0.090051826	1.9918175
6834.585	1.7406368	0.17719757	0.90760539	0.092394614	1.9178344
6834.59	1.8579029	0.17474877	0.91402916	0.085970841	2.0326517
6834.595	1.7931062	0.18331482	0.9072491	0.092750896	1.976421
6834.6	1.7763454	0.17593791	0.90988095	0.090119051	1.9522833
6834.605	1.8157839	0.17537161	0.91192471	0.088075293	1.9911555
6834.61	1.7934299	0.17408881	0.9115186	0.088481399	1.9675187
6834.615	1.7172478	0.17505827	0.90748945	0.092510548	1.892306
6834.62	1.7631617	0.16765047	0.91317101	0.08682899	1.9308121
6834.625	1.7767877	0.17581536	0.90995847	0.090041527	1.9526031
6834.63	1.840044	0.16641545	0.91706015	0.082939851	2.0064595
6834.635	1.8316483	0.17260742	0.91387954	0.086120457	2.0042557
6834.64	1.8297961	0.16786723	0.91596821	0.084031792	1.9976633
6834.645	1.7986589	0.15700496	0.91971782	0.08028218	1.9556639
6834.65	1.8476134	0.16565587	0.91771798	0.082282022	2.0132692
6834.655	1.6867828	0.20349503	0.8923465	0.1076535	1.8902778
6834.66	1.7915265	0.19855384	0.90022823	0.099771769	1.9900804
6834.665	1.6404874	0.27366515	0.85703065	0.14296935	1.9141526
6834.67	1.3836392	0.61268415	0.69309373	0.30690627	1.9963234
6834.675	1.1258934	0.829156	0.57588999	0.42411001	1.9550494
6834.68	1.3119744	0.64810469	0.66934768	0.33065232	1.9600791
6834.685	1.6732103	0.30452862	0.84602183	0.15397817	1.9777389
6834.69	1.7724981	0.18483576	0.90556759	0.094432411	1.9573339
6834.695	1.7747123	0.19373688	0.90157893	0.098421072	1.9684492
6834.7	1.714431	0.16790355	0.91080037	0.089199633	1.8823345
6834.705	1.8228356	0.14669145	0.92551945	0.074480547	1.9695271
6834.71	1.7640403	0.17204597	0.91113724	0.088862759	1.9360863
6834.715	1.929134	0.15826388	0.92418126	0.075818742	2.0873979
6834.72	1.7695554	0.16907825	0.91278484	0.087215164	1.9386337
6834.725	1.7521859	0.15407579	0.91917385	0.080826146	1.9062617
6834.73	1.8966037	0.14893972	0.92718819	0.072811812	2.0455434
6834.735	1.8619139	0.15643217	0.92249487	0.077505128	2.018346
6834.74	1.7688446	0.17285873	0.91097573	0.089024271	1.9417034
6834.745	1.8087774	0.15870419	0.91933638	0.080663621	1.9674816
6834.75	1.8496423	0.16257867	0.91920436	0.080795636	2.012221
6834.755	1.8290128	0.16261671	0.91834992	0.08165008	1.9916295
6834.76	1.7216242	0.17053312	0.90987371	0.090126291	1.8921573
6834.765	1.7363458	0.16271712	0.91431716	0.085682844	1.899063
6834.77	1.7903288	0.16533242	0.91545958	0.084540422	1.9556612
6834.775	1.6759273	0.15583371	0.91492684	0.085073164	1.831761
6834.78	1.8342521	0.15064092	0.92410628	0.075893725	1.984893
6834.785	1.9001008	0.15565954	0.92428128	0.075718721	2.0557603
6834.79	1.8453775	0.1575161	0.92135574	0.078644265	2.0028936
6834.795	1.8087373	0.15172527	0.92260741	0.077392585	1.9604626
6834.8	1.9006224	0.15269268	0.92563602	0.074363976	2.0533151
6834.805	1.7573461	0.16994307	0.91182274	0.088177256	1.9272891
6834.81	1.8100117	0.17282391	0.91284002	0.08715998	1.9828356
6834.815	1.7821095	0.16509248	0.91521554	0.084784464	1.947202
6834.82	1.7685652	0.17403873	0.91040956	0.089590435	1.9426039
6834.825	1.8837442	0.17232107	0.91618891	0.083811087	2.0560653
6834.83	1.8407187	0.17309537	0.914046	0.085953996	2.0138141
6834.835	1.7496616	0.17552905	0.90882511	0.091174893	1.9251906
6834.84	1.7679252	0.18579066	0.90490395	0.095096051	1.9537159
6834.845	1.7760397	0.17879823	0.90853552	0.09146448	1.9548379
6834.85	1.7857391	0.19301207	0.90245764	0.097542364	1.9787512
6834.855	1.7965122	0.19186639	0.90350611	0.096493895	1.9883786
6834.86	1.684723	0.18893419	0.89916288	0.10083712	1.8736572
6834.865	1.8284344	0.19626356	0.90306526	0.096934735	2.0246979
6834.87	1.8497841	0.1964358	0.90400064	0.09599936	2.0462199
6834.875	1.7572327	0.20684926	0.894684	0.105316	1.964082
6834.88	1.8127051	0.19783088	0.90160292	0.098397082	2.010536
6834.885	1.7007241	0.21373355	0.88835817	0.11164183	1.9144576
6834.89	1.7064814	0.21160485	0.88967918	0.11032082	1.9180862
6834.895	1.7037112	0.20428633	0.89293155	0.10706845	1.9079975
6834.9	1.7155197	0.20328328	0.89405724	0.10594276	1.918803
6834.905	1.7324568	0.22123518	0.88676046	0.11323954	1.953692
6834.91	1.6853825	0.22032453	0.88438699	0.11561301	1.905707
6834.915	1.7728883	0.2095065	0.89431646	0.10568354	1.9823948
6834.92	1.749666	0.20777363	0.89385438	0.10614562	1.9574396
6834.925	1.7716447	0.21559846	0.89150877	0.10849123	1.9872432
6834.93	1.7177813	0.22062554	0.88618203	0.11381797	1.9384068
6834.935	1.8296685	0.20402767	0.89967642	0.10032358	2.0336961
6834.94	1.7561236	0.21174883	0.89239707	0.10760293	1.9678724
6834.945	1.83012	0.21283683	0.89581922	0.10418078	2.0429568
6834.95	1.7396795	0.21830001	0.88850751	0.11149249	1.9579795
6834.955	1.8076855	0.20143996	0.89973749	0.10026251	2.0091255
6834.96	1.7789753	0.21032191	0.89427326	0.10572674	1.9892972
6834.965	1.7469198	0.20499125	0.89497921	0.10502079	1.9519111
6834.97	1.7893846	0.20117399	0.89893591	0.10106409	1.9905586
6834.975	1.7462722	0.2046453	0.89510304	0.10489696	1.9509175
6834.98	1.8064587	0.19102132	0.90436885	0.095631151	1.99748
6834.985	1.7756322	0.19158981	0.90260896	0.097391044	1.967222
6834.99	1.7804105	0.19381399	0.90182779	0.098172212	1.9742245
6834.995	1.7183657	0.19298203	0.89903354	0.10096646	1.9113478
6835	1.8075405	0.18254674	0.90827199	0.091728008	1.9900872
6835.005	1.783954	0.181886	0.9074767	0.092523298	1.96584
6835.01	1.8028479	0.16826855	0.91463287	0.085367131	1.9711164
6835.015	1.8564495	0.16711149	0.91741712	0.082582878	2.023561
6835.02	1.7906386	0.16359203	0.91628826	0.083711735	1.9542306
6835.025	1.7832479	0.16111555	0.91713712	0.082862878	1.9443634
6835.03	1.8340958	0.14733902	0.92564024	0.07435976	1.9814348
6835.035	1.8000285	0.15647381	0.92002371	0.079976295	1.9565023
6835.04	1.8635889	0.14709122	0.92684504	0.073154958	2.0106801
6835.045	1.8545714	0.14534969	0.92732229	0.072677715	1.9999211
6835.05	1.77221	0.1409445	0.92632874	0.073671261	1.9131545
6835.055	1.8015144	0.13767285	0.92900487	0.070995128	1.9391873
6835.06	1.8056246	0.14232701	0.92693504	0.073064964	1.9479516
6835.065	1.7730174	0.13685339	0.92834417	0.071655834	1.9098708
6835.07	1.8717184	0.12552228	0.93715215	0.062847849	1.9972407
6835.075	1.854925	0.12064027	0.93893379	0.061066205	1.9755653
6835.08	1.9126528	0.12071882	0.94063121	0.059368791	2.0333716
6835.085	1.8872528	0.12858662	0.93621188	0.063788124	2.0158394
6835.09	1.8313273	0.12221555	0.93743902	0.062560976	1.9535428
6835.095	1.9092937	0.11264144	0.94429028	0.055709717	2.0219352
6835.1	1.7536229	0.11742076	0.93724318	0.062756822	1.8710437
