#{"prms":{"sampleRate":200000,"runID":0,"groupID":"21-01-19_10-57-04","param":"PLLFreq","from":6834.1,"to":6835.1,"by":0.005},"mmexec":"","sender":"MOTMaster","cmd":"scan","id":2136650871}
#{"params":{"runID":0.0,"aChn":0.0,"ElapsedTime":0.0,"PLLFreq":6834.1,"ChirpRate":0.05,"ChirpDuration":0.2,"Pulse1Power":22.0,"Pulse1Duration":30.0,"Pulse1Phase":0.0,"Pulse2Power":22.0,"Pulse2Duration":30.0,"Pulse2Phase":0.0,"Pulse3Power":22.0,"Pulse3Duration":30.0,"Pulse3Phase":0.0,"VelPulsePower":22.0,"VelPulseDuration":100.0,"VelPulsePhase":0.0,"IntTime1":10.0,"IntTime2":10.0,"test":0.0,"AnalogClockFrequncy":100000.0,"AnalogLength":0.0,"HSClockFrequency":200000000.0,"2DCoil":9.0,"AnalogClockFrequency":100000.0,"yBiasImg":9.0,"2DAtten":4.15,"YpFreqMOT":6.785,"YmFreqLaunch":6.815,"YmFreqMOT":6.828,"DetFreq":3.8,"DetAttn":0.0,"y2DBias":0.0,"ZmAttenState":9.0,"YmAttenMOT":1.78,"YmAttenImg":2.65,"x2DBias":0.0,"PushAtten":7.5,"XpFreqMOT":6.735,"3DCoil":3.1,"2DFreq":7.11,"2DPushFreq":7.1,"ZmAttenImg":10.0,"mwTime":10.0,"YBiasState":9.9,"yBiasState":9.9,"zBiasMW":9.0,"YBiasMW":9.0,"zBiasInt":9.0,"YpAttenLaunch":2.5,"XpFreqLaunch":6.741,"YpFreqLaunch":6.799,"xBiasInt":9.0,"ZmAttenMOT":3.82,"ZpAttenMOT":6.9,"xBiasMot":-2.5,"yBiasMot":-0.25,"zBiasMot":-0.5,"XBiasState":0.0,"xBiasState":-2.5,"zBiasImg":-0.5,"ZBiasState":-0.5,"YBiasInt":-0.5,"ZpFreqMOT":6.807,"ZmFreqMOT":6.833,"XmFreqLaunch":6.896,"XmFreqMOT":6.901,"XmAttenLaunch":9.0,"ZpAttenState":3.2,"ZpAttenImg":6.7,"XpAttenLaunch":4.0,"XpAttenImg":2.8,"XpAttenMOT":6.2,"YpAttenMOT":6.1,"YpAttenImg":4.0,"XmAttenMOT":3.85,"XmAttenImg":2.5,"xBiasMW":-3.5,"":0.0,"ZmFreqLaunch":6.878,"ZpFreqLaunch":6.762,"rPhase0":0.0,"rPhase":50.0,"PLLFreqX":6834.51,"PLLFreqY":6834.48,"ChirpRateX":0.65,"ChirpRateY":0.32,"MWFreq":6834.682,"xBiasImg":-2.5}}
#{"steps":{"Initialization 1":0.1,"Initialization 2":1.0,"2D3D":200.0,"3Donly":10.0,"B field off":6.0,"Launch":1.0,"Freq Ramp":0.1,"Wait":5.74,"Intensity ramp":0.2,"BSwitch0":1.0,"Step1":0.1,"Step2":0.06,"BSwitch1":2.0,"BSwitch2":1.0,"MW0":0.095,"Wait2":20.71,"VelSel":0.058,"B3":1.0,"Pulse 1":0.03,"Delay":0.1,"Dark2":0.4,"Pulse 2":0.07,"Dark 3":0.5,"Pulse 3":0.03,"Detection B field 1":3.21,"Detection field 2":2.5,"Dwell":2.0,"N2":0.3,"NTot":0.3,"BlowAway2":100.0,"DetWait":1.7,"B2":0.3,"BTot":0.3,"Bg":0.3,"Off":300.0}}


XAxis	N1	N2	RN1	RN2	NTot
6834.1	2.2354146	0.12040451	0.94889059	0.051109406	2.3558191
6834.105	2.4849568	0.10913536	0.95792927	0.042070734	2.5940922
6834.11	2.2752725	0.11480943	0.95196423	0.04803577	2.3900819
6834.115	2.4773817	0.12180267	0.95313812	0.04686188	2.5991844
6834.12	2.431635	0.12356504	0.95164174	0.048358263	2.5552001
6834.125	2.5238247	0.12986101	0.95106391	0.048936092	2.6536858
6834.13	2.4231669	0.12739734	0.95005131	0.04994869	2.5505642
6834.135	2.5248986	0.12384626	0.95324342	0.046756583	2.6487449
6834.14	2.4127758	0.12874051	0.949345	0.050655003	2.5415163
6834.145	2.4668528	0.12791653	0.95070216	0.049297842	2.5947693
6834.15	2.4441832	0.12821948	0.95015575	0.049844249	2.5724027
6834.155	2.4690256	0.12902021	0.95033952	0.049660484	2.5980458
6834.16	2.5843698	0.12137948	0.95514016	0.044859841	2.7057493
6834.165	2.5104451	0.13336505	0.94955574	0.05044426	2.6438102
6834.17	2.4764022	0.13383134	0.94872821	0.051271788	2.6102336
6834.175	2.5496038	0.12905502	0.95182103	0.04817897	2.6786588
6834.18	2.4504329	0.13137827	0.94911391	0.050886088	2.5818112
6834.185	2.6013977	0.13213683	0.95166081	0.048339185	2.7335346
6834.19	2.4659424	0.13794124	0.94702481	0.052975192	2.6038837
6834.195	2.5120001	0.1394264	0.94741457	0.052585426	2.6514265
6834.2	2.4713763	0.13930045	0.94664202	0.053357984	2.6106767
6834.205	2.5550161	0.1299476	0.95160173	0.048398269	2.6849637
6834.21	2.5558089	0.13667157	0.94923953	0.05076047	2.6924805
6834.215	2.5219624	0.13656544	0.94863118	0.051368818	2.6585279
6834.22	2.5369098	0.13635071	0.9489946	0.051005396	2.6732605
6834.225	2.4189701	0.13882331	0.94572536	0.05427464	2.5577934
6834.23	2.599759	0.14275011	0.94794909	0.052050915	2.7425091
6834.235	2.4707882	0.14127077	0.94591593	0.054084066	2.612059
6834.24	2.5786557	0.13550054	0.95007637	0.049923634	2.7141563
6834.245	2.5093109	0.13982097	0.94722008	0.052779921	2.6491319
6834.25	2.5717506	0.1422427	0.94758915	0.052410853	2.7139933
6834.255	2.5519044	0.13166183	0.95093774	0.049062261	2.6835663
6834.26	2.5109634	0.13648772	0.94844561	0.051554388	2.6474511
6834.265	2.5206337	0.15194557	0.94314647	0.056853531	2.6725793
6834.27	2.5996694	0.13926445	0.94915377	0.050846226	2.7389338
6834.275	2.4912147	0.14009686	0.94675778	0.053242217	2.6313115
6834.28	2.4572185	0.15404275	0.9410083	0.058991702	2.6112613
6834.285	2.5736456	0.15774258	0.9422482	0.0577518	2.7313882
6834.29	2.5712194	0.1601165	0.94137796	0.058622044	2.7313359
6834.295	2.6866855	0.15542173	0.94531461	0.054685386	2.8421073
6834.3	2.3990137	0.1586035	0.93798779	0.062012211	2.5576172
6834.305	2.4310603	0.16386866	0.93685043	0.063149573	2.594929
6834.31	2.5114689	0.16639724	0.937862	0.062137998	2.6778662
6834.315	2.6224497	0.16268568	0.94158787	0.058412126	2.7851353
6834.32	2.6180724	0.1672557	0.93995117	0.060048833	2.7853281
6834.325	2.5497983	0.17083726	0.93720685	0.062793145	2.7206356
6834.33	2.5014878	0.17891853	0.93324947	0.066750525	2.6804063
6834.335	2.5166856	0.17975118	0.93333751	0.066662487	2.6964368
6834.34	2.3644107	0.18470521	0.92754146	0.072458537	2.5491159
6834.345	2.6211076	0.1805236	0.93556482	0.064435176	2.8016312
6834.35	2.5356822	0.18907761	0.93060761	0.069392394	2.7247598
6834.355	2.4031805	0.19965162	0.92329447	0.07670553	2.6028321
6834.36	2.4979658	0.19655558	0.92705362	0.072946378	2.6945214
6834.365	2.4498413	0.20786529	0.92178772	0.078212279	2.6577066
6834.37	2.5658892	0.20848677	0.92485273	0.075147265	2.774376
6834.375	2.4516627	0.20861924	0.92158003	0.078419974	2.6602819
6834.38	2.534508	0.21074231	0.92323384	0.076766157	2.7452503
6834.385	2.4227833	0.23043447	0.91314906	0.086850945	2.6532178
6834.39	2.5554822	0.2131631	0.92300816	0.076991841	2.7686453
6834.395	2.4103688	0.23385137	0.91156131	0.088438692	2.6442201
6834.4	2.571809	0.2190118	0.92152424	0.078475764	2.7908208
6834.405	2.4926727	0.24341223	0.9110363	0.088963698	2.7360849
6834.41	2.400574	0.24676641	0.90678705	0.093212948	2.6473404
6834.415	2.5341204	0.24009308	0.91345544	0.086544558	2.7742135
6834.42	2.3941663	0.25836243	0.90259769	0.097402311	2.6525288
6834.425	2.4504513	0.25609277	0.90538016	0.094619841	2.7065441
6834.43	2.4857162	0.25527474	0.90686772	0.093132282	2.7409909
6834.435	2.4307474	0.26661955	0.90115563	0.098844373	2.697367
6834.44	2.5405854	0.25235435	0.90964562	0.090354385	2.7929397
6834.445	2.4017121	0.27725222	0.89650769	0.10349231	2.6789643
6834.45	2.5219915	0.26286371	0.90560956	0.09439044	2.7848552
6834.455	2.4093864	0.26999048	0.89923386	0.10076614	2.6793769
6834.46	2.5990222	0.26074171	0.90882404	0.091175957	2.8597639
6834.465	2.3990167	0.26823343	0.89943447	0.10056553	2.6672501
6834.47	2.5602837	0.26077575	0.90756106	0.092438942	2.8210595
6834.475	2.4260847	0.28203946	0.89585431	0.10414569	2.7081241
6834.48	2.5488061	0.27277893	0.90332422	0.096675777	2.8215851
6834.485	2.4469889	0.27912572	0.89761042	0.10238958	2.7261146
6834.49	2.3958879	0.27312135	0.89766939	0.10233061	2.6690093
6834.495	2.5427009	0.26141363	0.90677498	0.093225019	2.8041145
6834.5	2.3585706	0.27009554	0.89724996	0.10275004	2.6286662
6834.505	2.4181525	0.26530929	0.90113171	0.098868293	2.6834618
6834.51	2.4710279	0.25944764	0.90498079	0.095019214	2.7304756
6834.515	2.3357292	0.26638407	0.8976278	0.1023722	2.6021133
6834.52	2.447944	0.25881749	0.90438112	0.095618878	2.7067614
6834.525	2.4554356	0.2628309	0.90330937	0.096690629	2.7182665
6834.53	2.5442027	0.24632831	0.91172708	0.088272915	2.790531
6834.535	2.4956767	0.24601828	0.91026781	0.089732186	2.741695
6834.54	2.5013084	0.25257543	0.90828392	0.091716079	2.7538838
6834.545	2.5499131	0.24102464	0.91364027	0.086359733	2.7909377
6834.55	2.4287157	0.24890516	0.90704242	0.092957583	2.6776208
6834.555	2.4685439	0.25119095	0.90764138	0.09235862	2.7197348
6834.56	2.5232148	0.22648483	0.91763288	0.082367117	2.7496996
6834.565	2.434357	0.22887365	0.91406165	0.085938351	2.6632307
6834.57	2.4791856	0.22835252	0.91566046	0.084339541	2.7075382
6834.575	2.5125545	0.22395022	0.91816195	0.081838053	2.7365047
6834.58	2.4454019	0.22855347	0.91452607	0.085473929	2.6739553
6834.585	2.4957301	0.2293646	0.91583243	0.084167572	2.7250947
6834.59	2.5711453	0.2156355	0.92262201	0.077377991	2.7867808
6834.595	2.4213631	0.22308429	0.91564049	0.08435951	2.6444474
6834.6	2.3950347	0.22266926	0.91493719	0.085062812	2.617704
6834.605	2.3914655	0.21741694	0.91666281	0.083337193	2.6088824
6834.61	2.5282408	0.22425404	0.91852699	0.081473011	2.7524948
6834.615	2.4459758	0.2310135	0.91370399	0.086296011	2.6769893
6834.62	2.5947138	0.22316332	0.92080445	0.079195548	2.8178771
6834.625	2.4634122	0.24837538	0.90840898	0.091591015	2.7117876
6834.63	2.4503934	0.24962722	0.90754618	0.092453819	2.7000206
6834.635	2.5034725	0.25075659	0.9089558	0.091044203	2.754229
6834.64	2.592658	0.24085008	0.91499933	0.085000667	2.8335081
6834.645	2.4199016	0.24322314	0.90867002	0.091329985	2.6631248
6834.65	2.4726676	0.25213642	0.90746622	0.092533783	2.724804
6834.655	2.602697	0.27068362	0.90579612	0.094203884	2.8733807
6834.66	2.445674	0.26810997	0.90120438	0.098795618	2.713784
6834.665	2.4550325	0.33073057	0.88127828	0.11872172	2.785763
6834.67	2.0739911	0.61414006	0.77153642	0.22846358	2.6881312
6834.675	1.8143587	0.90241078	0.66783683	0.33216317	2.7167695
6834.68	1.9599409	0.77727713	0.7160339	0.2839661	2.737218
6834.685	2.1890919	0.42971703	0.83591127	0.16408873	2.6188089
6834.69	2.4780066	0.26873186	0.90216329	0.097836714	2.7467384
6834.695	2.3408541	0.26859724	0.89706754	0.10293246	2.6094514
6834.7	2.4989681	0.25666762	0.9068572	0.093142795	2.7556358
6834.705	2.4266688	0.24637175	0.9078309	0.092169103	2.6730406
6834.71	2.5207979	0.24410017	0.91171459	0.088285415	2.764898
6834.715	2.3883127	0.24039624	0.90854969	0.091450308	2.6287089
6834.72	2.4881226	0.23408338	0.91400968	0.085990324	2.722206
6834.725	2.5088497	0.23590925	0.91405102	0.085948985	2.744759
6834.73	2.446217	0.21837662	0.91804506	0.081954942	2.6645936
6834.735	2.5465845	0.21263317	0.92293715	0.077062847	2.7592177
6834.74	2.5837828	0.20464583	0.9266089	0.073391095	2.7884286
6834.745	2.6255437	0.19854651	0.92969541	0.07030459	2.8240902
6834.75	2.5997446	0.20051643	0.92839366	0.071606335	2.800261
6834.755	2.618419	0.19386346	0.93106544	0.068934563	2.8122825
6834.76	2.4778838	0.20518023	0.92352764	0.076472357	2.683064
6834.765	2.4889512	0.19975465	0.92570602	0.074293976	2.6887058
6834.77	2.5802642	0.20645242	0.92591553	0.074084467	2.7867167
6834.775	2.4855169	0.20439822	0.92401314	0.075986865	2.6899151
6834.78	2.4956997	0.20866594	0.92284107	0.077158926	2.7043656
6834.785	2.6177343	0.20964136	0.92585302	0.074146978	2.8273757
6834.79	2.48516	0.22000163	0.91867339	0.081326613	2.7051616
6834.795	2.6229937	0.21837047	0.92314591	0.076854094	2.8413642
6834.8	2.4698321	0.22483497	0.91656299	0.083437014	2.6946671
6834.805	2.561841	0.21337219	0.92311503	0.076884972	2.7752132
6834.81	2.6692937	0.22543263	0.92212299	0.077877009	2.8947263
6834.815	2.4979956	0.22486754	0.91741504	0.08258496	2.7228631
6834.82	2.5675454	0.23113343	0.91741338	0.082586622	2.7986789
6834.825	2.3942959	0.25296269	0.90444353	0.09555647	2.6472586
6834.83	2.4983303	0.23867917	0.91279564	0.087204362	2.7370095
6834.835	2.5022913	0.24290679	0.91151575	0.088484246	2.7451981
6834.84	2.5304669	0.23708393	0.91433439	0.085665611	2.7675508
6834.845	2.5283201	0.23961001	0.9134335	0.086566496	2.7679301
6834.85	2.6094837	0.23948755	0.91593894	0.084061063	2.8489712
6834.855	2.4832401	0.24970659	0.90863101	0.091368993	2.7329467
6834.86	2.4334804	0.24845163	0.90736095	0.092639048	2.681932
6834.865	2.4200422	0.26376324	0.90172043	0.098279569	2.6838055
6834.87	2.5482722	0.26261073	0.90657358	0.09342642	2.8108829
6834.875	2.4331967	0.26389219	0.90215666	0.097843342	2.6970889
6834.88	2.4117971	0.26507739	0.90097504	0.099024962	2.6768745
6834.885	2.5671397	0.25409097	0.90993612	0.090063876	2.8212307
6834.89	2.3765179	0.26457617	0.89982327	0.10017673	2.6410941
6834.895	2.3616393	0.26720539	0.89835634	0.10164366	2.6288447
6834.9	2.5114382	0.26446272	0.90472905	0.09527095	2.7759009
6834.905	2.5390565	0.26168957	0.90656433	0.093435667	2.800746
6834.91	2.3884579	0.27551451	0.89657757	0.10342243	2.6639724
6834.915	2.5122593	0.27071447	0.90272475	0.097275251	2.7829738
6834.92	2.4877274	0.26810754	0.90271277	0.097287228	2.7558349
6834.925	2.4728553	0.26611335	0.90284177	0.09715823	2.7389687
6834.93	2.4181089	0.27891586	0.89658387	0.10341613	2.6970247
6834.935	2.5000966	0.26126052	0.90538691	0.094613086	2.7613572
6834.94	2.3995725	0.26086577	0.90194632	0.098053685	2.6604383
6834.945	2.5456671	0.25938075	0.90753072	0.092469278	2.8050478
6834.95	2.5395775	0.26074705	0.90688685	0.093113151	2.8003246
6834.955	2.5066957	0.25812432	0.90663974	0.09336026	2.76482
6834.96	2.4508932	0.2540303	0.90608596	0.093914042	2.7049234
6834.965	2.5597202	0.23693495	0.91527917	0.084720832	2.7966552
6834.97	2.5102905	0.24941643	0.90962213	0.090377869	2.7597069
6834.975	2.5729934	0.24211255	0.91399523	0.086004772	2.815106
6834.98	2.5285603	0.23059478	0.91642558	0.083574419	2.759155
6834.985	2.4531614	0.2237822	0.91640384	0.083596157	2.6769436
6834.99	2.5362996	0.2291367	0.91714266	0.082857341	2.7654364
6834.995	2.3938248	0.21453392	0.91775137	0.082248626	2.6083588
6835	2.5575245	0.21140056	0.92365248	0.076347521	2.768925
6835.005	2.5730418	0.21420064	0.92314962	0.076850381	2.7872424
6835.01	2.6018274	0.20745281	0.92615446	0.073845539	2.8092802
6835.015	2.5222854	0.20708995	0.92412551	0.075874486	2.7293754
6835.02	2.5456455	0.20198063	0.92648904	0.073510959	2.7476262
6835.025	2.5926368	0.19173681	0.93113826	0.068861739	2.7843736
6835.03	2.4199432	0.19680625	0.9247898	0.075210199	2.6167495
6835.035	2.4717098	0.19002647	0.92860808	0.071391921	2.6617363
6835.04	2.5401824	0.18120711	0.93341376	0.066586245	2.7213895
6835.045	2.5888478	0.18098867	0.93465727	0.065342727	2.7698365
6835.05	2.6110306	0.17491096	0.93721657	0.062783428	2.7859416
6835.055	2.4701558	0.17581906	0.93355226	0.066447744	2.6459748
6835.06	2.6626646	0.16558895	0.94145187	0.058548128	2.8282536
6835.065	2.4971062	0.16718689	0.93724906	0.062750936	2.6642931
6835.07	2.6097669	0.1683425	0.93940394	0.060596064	2.7781094
6835.075	2.5720075	0.16368733	0.94016608	0.059833916	2.7356948
6835.08	2.4973073	0.16625365	0.93758219	0.062417814	2.6635609
6835.085	2.6320151	0.15401196	0.94471986	0.055280139	2.7860271
6835.09	2.6657503	0.15578295	0.94478784	0.05521216	2.8215333
6835.095	2.7167707	0.14632928	0.94889131	0.051108685	2.8631
6835.1	2.6200104	0.15249207	0.9449984	0.055001599	2.7725024
