#{"prms":{"sampleRate":200000,"runID":0,"groupID":"21-01-19_11-40-44","param":"mwTime","from":1.0,"to":100.0,"by":1.0},"mmexec":"","sender":"MOTMaster","cmd":"scan","id":181891224}
#{"params":{"runID":0.0,"aChn":0.0,"ElapsedTime":0.0,"PLLFreq":6834.51,"ChirpRate":0.05,"ChirpDuration":0.2,"Pulse1Power":22.0,"Pulse1Duration":30.0,"Pulse1Phase":0.0,"Pulse2Power":22.0,"Pulse2Duration":30.0,"Pulse2Phase":0.0,"Pulse3Power":22.0,"Pulse3Duration":30.0,"Pulse3Phase":0.0,"VelPulsePower":22.0,"VelPulseDuration":100.0,"VelPulsePhase":0.0,"IntTime1":10.0,"IntTime2":10.0,"test":0.0,"AnalogClockFrequncy":100000.0,"AnalogLength":0.0,"HSClockFrequency":200000000.0,"2DCoil":9.0,"AnalogClockFrequency":100000.0,"yBiasImg":9.0,"2DAtten":4.15,"YpFreqMOT":6.785,"YmFreqLaunch":6.815,"YmFreqMOT":6.828,"DetFreq":3.8,"DetAttn":0.0,"y2DBias":0.0,"ZmAttenState":9.0,"YmAttenMOT":1.78,"YmAttenImg":2.65,"x2DBias":0.0,"PushAtten":7.5,"XpFreqMOT":6.735,"3DCoil":3.1,"2DFreq":7.11,"2DPushFreq":7.1,"ZmAttenImg":10.0,"mwTime":1.0,"YBiasState":9.9,"yBiasState":9.9,"zBiasMW":9.0,"YBiasMW":9.0,"zBiasInt":9.0,"YpAttenLaunch":2.5,"XpFreqLaunch":6.741,"YpFreqLaunch":6.799,"xBiasInt":9.0,"ZmAttenMOT":3.82,"ZpAttenMOT":6.9,"xBiasMot":-2.5,"yBiasMot":-0.25,"zBiasMot":-0.5,"XBiasState":0.0,"xBiasState":-2.5,"zBiasImg":-0.5,"ZBiasState":-0.5,"YBiasInt":-0.5,"ZpFreqMOT":6.807,"ZmFreqMOT":6.833,"XmFreqLaunch":6.896,"XmFreqMOT":6.901,"XmAttenLaunch":9.0,"ZpAttenState":3.2,"ZpAttenImg":6.7,"XpAttenLaunch":4.0,"XpAttenImg":2.8,"XpAttenMOT":6.2,"YpAttenMOT":6.1,"YpAttenImg":4.0,"XmAttenMOT":3.85,"XmAttenImg":2.5,"xBiasMW":-3.5,"":0.0,"ZmFreqLaunch":6.878,"ZpFreqLaunch":6.762,"rPhase0":0.0,"rPhase":50.0,"PLLFreqX":6834.51,"PLLFreqY":6834.48,"ChirpRateX":0.65,"ChirpRateY":0.32,"MWFreq":6834.682,"xBiasImg":-2.5}}
#{"steps":{"Initialization 1":0.1,"Initialization 2":1.0,"2D3D":200.0,"3Donly":10.0,"B field off":6.0,"Launch":1.0,"Freq Ramp":0.1,"Wait":5.74,"Intensity ramp":0.2,"BSwitch0":1.0,"Step1":0.1,"Step2":0.06,"BSwitch1":2.0,"BSwitch2":1.0,"MW0":0.095,"Wait2":5.71,"VelSel":0.058,"B3":1.0,"Pulse 1":0.03,"Delay":0.1,"Dark2":0.4,"Pulse 2":0.001,"Dark 3":0.5,"Pulse 3":0.03,"Detection B field 1":3.21,"Detection field 2":2.5,"Dwell":2.0,"N2":0.3,"NTot":0.3,"BlowAway2":100.0,"DetWait":1.7,"B2":0.3,"BTot":0.3,"Bg":0.3,"Off":300.0}}


XAxis	N1	N2	RN1	RN2	NTot
1	2.9434414	0.099119326	0.9674224	0.0325776	3.0425608
2	2.9801578	0.103712	0.96636953	0.033630475	3.0838698
3	2.9833362	0.11310472	0.96347267	0.03652733	3.0964409
4	2.9474676	0.11104699	0.96369251	0.036307491	3.0585146
5	2.9177135	0.12888852	0.95769434	0.042305662	3.046602
6	2.9527309	0.12534273	0.95927884	0.040721159	3.0780736
7	2.9800241	0.13615084	0.95630835	0.043691655	3.1161749
8	3.0739152	0.14540522	0.95483357	0.045166434	3.2193204
9	2.9416058	0.14994791	0.95149755	0.048502445	3.0915537
10	2.9630473	0.16313871	0.94781542	0.05218458	3.126186
11	3.0025658	0.16281174	0.94856483	0.051435173	3.1653775
12	2.8807914	0.17454123	0.94287325	0.057126751	3.0553327
13	3.0058117	0.17688355	0.94442335	0.055576654	3.1826952
14	3.0420494	0.17618879	0.94525303	0.05474697	3.2182382
15	2.9305349	0.19161192	0.93862815	0.061371848	3.1221468
16	2.9918676	0.18660647	0.94129055	0.058709453	3.1784741
17	2.9606931	0.20802647	0.93434999	0.065650008	3.1687196
18	2.9332584	0.19408891	0.93793816	0.062061836	3.1273473
19	3.0718675	0.21041723	0.93589306	0.064106939	3.2822848
20	3.017478	0.21651362	0.93305066	0.066949344	3.2339916
21	2.9900744	0.21533599	0.93282109	0.067178914	3.2054104
22	2.9498128	0.22222215	0.92994335	0.070056653	3.172035
23	3.07303	0.22441825	0.93194184	0.068058156	3.2974482
24	2.9859456	0.23014525	0.92843944	0.071560557	3.2160909
25	2.8321243	0.2274558	0.92565784	0.074342161	3.0595801
26	2.9472533	0.22970318	0.9276971	0.072302905	3.1769564
27	3.037919	0.23534697	0.92810026	0.071899741	3.2732659
28	3.0336148	0.24147246	0.92626991	0.073730086	3.2750872
29	3.0865597	0.23434626	0.92943303	0.070566967	3.320906
30	2.9420187	0.24586525	0.92287509	0.077124906	3.187884
31	3.080266	0.24319255	0.92682546	0.07317454	3.3234585
32	2.971917	0.24387795	0.92416247	0.075837529	3.215795
33	3.0741347	0.23679087	0.92848197	0.071518029	3.3109256
34	3.0253677	0.25121408	0.92333044	0.076669559	3.2765818
35	3.0197423	0.25315687	0.92265057	0.077349425	3.2728991
36	3.0323903	0.24674967	0.92475171	0.075248288	3.27914
37	2.9916556	0.2554683	0.92132475	0.078675254	3.2471239
38	3.066721	0.25228114	0.92398886	0.076011142	3.3190021
39	3.008808	0.24798254	0.92385677	0.076143226	3.2567905
40	3.0727593	0.24954183	0.92488886	0.075111142	3.3223011
41	3.0050006	0.2616561	0.91990095	0.08009905	3.2666567
42	3.0053189	0.25235009	0.92253661	0.077463392	3.257669
43	2.895978	0.24895279	0.92083998	0.079160022	3.1449308
44	2.9376394	0.25753458	0.91939889	0.080601114	3.1951739
45	2.9832421	0.2586102	0.92022764	0.079772357	3.2418523
46	3.0479471	0.24962776	0.92429959	0.075700408	3.2975748
47	2.9201268	0.25893075	0.9185511	0.081448903	3.1790576
48	3.0456178	0.25151807	0.92371619	0.076283807	3.2971358
49	3.07958	0.24537372	0.92620237	0.073797633	3.3249537
50	3.0283553	0.24922813	0.92395979	0.076040208	3.2775835
51	3.0370011	0.25478364	0.92260015	0.077399849	3.2917847
52	3.0473099	0.25110772	0.92387025	0.076129754	3.2984176
53	3.0151648	0.24973177	0.92351005	0.076489949	3.2648965
54	2.8175638	0.25016172	0.91845368	0.081546319	3.0677255
55	3.0697358	0.25298989	0.92386074	0.076139264	3.3227257
56	3.0193448	0.24104032	0.92606999	0.073930015	3.2603851
57	2.9281243	0.24261801	0.92348227	0.076517732	3.1707423
58	3.0375873	0.24744614	0.9246747	0.075325305	3.2850334
59	2.9240928	0.26491535	0.91692861	0.083071393	3.1890081
60	2.980446	0.25131707	0.9222353	0.077764695	3.2317631
61	2.9758888	0.25181595	0.92198296	0.078017036	3.2277047
62	3.0220543	0.23827828	0.92691596	0.07308404	3.2603326
63	2.9824086	0.24920998	0.92288385	0.077116149	3.2316186
64	3.0752938	0.2482176	0.92531465	0.074685345	3.3235114
65	3.0022425	0.24457866	0.92467135	0.075328651	3.2468212
66	2.9248101	0.26002032	0.91835662	0.081643379	3.1848305
67	3.0299824	0.2444127	0.92535638	0.07464362	3.2743951
68	3.0750269	0.24214559	0.92700241	0.072997586	3.3171725
69	2.9856966	0.254159	0.92155237	0.07844763	3.2398556
70	2.9219604	0.2542152	0.91996185	0.080038145	3.1761756
71	3.0193005	0.25553613	0.92196981	0.078030193	3.2748366
72	2.9638839	0.24285188	0.9242682	0.075731802	3.2067358
73	3.0233515	0.23527284	0.92779995	0.072200051	3.2586243
74	2.9518774	0.25494871	0.92049812	0.079501882	3.2068262
75	3.015213	0.25083315	0.92319975	0.076800248	3.2660461
76	3.0406145	0.2523533	0.923366	0.076634	3.2929678
77	2.9703317	0.25841513	0.91996426	0.080035736	3.2287469
78	2.949056	0.25238134	0.92116624	0.078833758	3.2014374
79	2.9800843	0.26337653	0.91879768	0.081202315	3.2434608
80	2.9201165	0.25506099	0.91967032	0.080329681	3.1751775
81	3.0346408	0.24605069	0.92500036	0.074999641	3.2806915
82	3.0800005	0.24320993	0.92681477	0.073185233	3.3232105
83	3.03646	0.24540864	0.92522289	0.074777108	3.2818686
84	2.9266211	0.25887462	0.91873333	0.081266668	3.1854957
85	3.0279212	0.24029542	0.92647506	0.073524936	3.2682167
86	2.9832396	0.25713793	0.92064569	0.079354312	3.2403775
87	3.0211387	0.25425633	0.92237384	0.077626157	3.275395
88	2.8852104	0.25488689	0.91882835	0.081171654	3.1400973
89	2.9491468	0.26041791	0.91886192	0.081138078	3.2095647
90	2.93914	0.25257084	0.92086663	0.079133372	3.1917108
91	3.0342642	0.25623926	0.92212764	0.077872358	3.2905035
92	3.0679733	0.25032541	0.92456213	0.075437875	3.3182987
93	2.9969186	0.24252978	0.92513238	0.074867617	3.2394483
94	2.9999619	0.25540706	0.92154282	0.078457176	3.255369
95	2.9393598	0.26310269	0.91784363	0.08215637	3.2024625
96	3.0753659	0.24862571	0.92520267	0.074797334	3.3239916
97	3.0288061	0.27104885	0.91786038	0.082139625	3.299855
98	3.015282	0.25741157	0.92134565	0.078654347	3.2726935
99	3.0643503	0.25655191	0.92274632	0.077253678	3.3209022
100	3.02255	0.2561096	0.92188588	0.078114118	3.2786596
