#{"prms":{"sampleRate":200000,"runID":0,"groupID":"21-01-19_10-48-33","param":"PLLFreq","from":6834.1,"to":6835.1,"by":0.005},"mmexec":"","sender":"MOTMaster","cmd":"scan","id":1565811502}
#{"params":{"runID":0.0,"aChn":0.0,"ElapsedTime":0.0,"PLLFreq":6834.1,"ChirpRate":0.05,"ChirpDuration":0.2,"Pulse1Power":22.0,"Pulse1Duration":30.0,"Pulse1Phase":0.0,"Pulse2Power":22.0,"Pulse2Duration":30.0,"Pulse2Phase":0.0,"Pulse3Power":22.0,"Pulse3Duration":30.0,"Pulse3Phase":0.0,"VelPulsePower":22.0,"VelPulseDuration":100.0,"VelPulsePhase":0.0,"IntTime1":10.0,"IntTime2":10.0,"test":0.0,"AnalogClockFrequncy":100000.0,"AnalogLength":0.0,"HSClockFrequency":200000000.0,"2DCoil":9.0,"AnalogClockFrequency":100000.0,"yBiasImg":9.0,"2DAtten":4.15,"YpFreqMOT":6.785,"YmFreqLaunch":6.815,"YmFreqMOT":6.828,"DetFreq":3.8,"DetAttn":0.0,"y2DBias":0.0,"ZmAttenState":9.0,"YmAttenMOT":1.78,"YmAttenImg":2.65,"x2DBias":0.0,"PushAtten":7.5,"XpFreqMOT":6.735,"3DCoil":3.1,"2DFreq":7.11,"2DPushFreq":7.1,"ZmAttenImg":10.0,"mwTime":10.0,"YBiasState":9.9,"yBiasState":9.9,"zBiasMW":9.0,"YBiasMW":9.0,"zBiasInt":9.0,"YpAttenLaunch":2.5,"XpFreqLaunch":6.741,"YpFreqLaunch":6.799,"xBiasInt":9.0,"ZmAttenMOT":3.82,"ZpAttenMOT":6.9,"xBiasMot":-2.5,"yBiasMot":-0.25,"zBiasMot":-0.5,"XBiasState":0.0,"xBiasState":-2.5,"zBiasImg":-0.5,"ZBiasState":-0.5,"YBiasInt":-0.5,"ZpFreqMOT":6.807,"ZmFreqMOT":6.833,"XmFreqLaunch":6.896,"XmFreqMOT":6.901,"XmAttenLaunch":9.0,"ZpAttenState":3.2,"ZpAttenImg":6.7,"XpAttenLaunch":4.0,"XpAttenImg":2.8,"XpAttenMOT":6.2,"YpAttenMOT":6.1,"YpAttenImg":4.0,"XmAttenMOT":3.85,"XmAttenImg":2.5,"xBiasMW":-3.5,"":0.0,"ZmFreqLaunch":6.878,"ZpFreqLaunch":6.762,"rPhase0":0.0,"rPhase":50.0,"PLLFreqX":6834.51,"PLLFreqY":6834.48,"ChirpRateX":0.65,"ChirpRateY":0.32,"MWFreq":6834.682,"xBiasImg":-2.5}}
#{"steps":{"Initialization 1":0.1,"Initialization 2":1.0,"2D3D":200.0,"3Donly":10.0,"B field off":6.0,"Launch":1.0,"Freq Ramp":0.1,"Wait":5.74,"Intensity ramp":0.2,"BSwitch0":1.0,"Step1":0.1,"Step2":0.06,"BSwitch1":2.0,"BSwitch2":1.0,"MW0":0.095,"Wait2":10.71,"VelSel":0.058,"B3":1.0,"Pulse 1":0.03,"Delay":0.1,"Dark2":0.4,"Pulse 2":0.07,"Dark 3":0.5,"Pulse 3":0.03,"Detection B field 1":3.21,"Detection field 2":2.5,"Dwell":2.0,"N2":0.3,"NTot":0.3,"BlowAway2":100.0,"DetWait":1.7,"B2":0.3,"BTot":0.3,"Bg":0.3,"Off":300.0}}


XAxis	N1	N2	RN1	RN2	NTot
6834.1	2.4098405	0.12553519	0.95048655	0.049513447	2.5353757
6834.105	2.454473	0.11964035	0.95352172	0.046478277	2.5741133
6834.11	2.5626769	0.12174667	0.954647	0.045353002	2.6844236
6834.115	2.5266668	0.13286398	0.95004232	0.049957676	2.6595307
6834.12	2.6446523	0.13262878	0.9522451	0.047754901	2.7772811
6834.125	2.5735457	0.13441047	0.95036461	0.049635394	2.7079561
6834.13	2.746578	0.1314921	0.95431241	0.045687593	2.8780701
6834.135	2.5247942	0.14071084	0.94721044	0.05278956	2.665505
6834.14	2.6987302	0.13596509	0.95203538	0.047964622	2.8346953
6834.145	2.7388005	0.12921349	0.9549467	0.045053296	2.868014
6834.15	2.6280777	0.13627419	0.95070302	0.049296976	2.7643519
6834.155	2.7084126	0.13388154	0.95289666	0.047103336	2.8422942
6834.16	2.5463737	0.13451853	0.94982322	0.050176776	2.6808922
6834.165	2.6006519	0.13282682	0.9514074	0.048592596	2.7334787
6834.17	2.7278961	0.1311133	0.95414031	0.045859694	2.8590094
6834.175	2.6873955	0.13633056	0.95171962	0.048280378	2.8237261
6834.18	2.6580414	0.13516903	0.951608	0.048391997	2.7932105
6834.185	2.7287013	0.13440071	0.95305766	0.046942339	2.863102
6834.19	2.6985141	0.14171701	0.9501037	0.049896297	2.8402311
6834.195	2.5864436	0.1430125	0.94760403	0.052395971	2.7294561
6834.2	2.6325582	0.13955728	0.94965676	0.050343241	2.7721155
6834.205	2.6909418	0.13453523	0.95238495	0.04761505	2.825477
6834.21	2.6501253	0.1335355	0.95202882	0.047971181	2.7836608
6834.215	2.6965517	0.13724338	0.95156905	0.048430948	2.8337951
6834.22	2.7076214	0.14383291	0.94955805	0.050441947	2.8514543
6834.225	2.6552213	0.13607207	0.95125125	0.048748752	2.7912934
6834.23	2.6370489	0.14128661	0.94914703	0.050852967	2.7783355
6834.235	2.6546324	0.14159525	0.94936204	0.050637956	2.7962276
6834.24	2.5420959	0.14191689	0.94712511	0.052874893	2.6840127
6834.245	2.5499184	0.15136202	0.94396657	0.056033433	2.7012804
6834.25	2.5386888	0.14424808	0.94623501	0.053764993	2.6829369
6834.255	2.550116	0.14987307	0.94449123	0.055508769	2.6999891
6834.26	2.6533987	0.14904567	0.94681583	0.053184167	2.8024444
6834.265	2.759375	0.14862584	0.94889072	0.051109283	2.9080008
6834.27	2.6528338	0.14716022	0.94744267	0.052557334	2.799994
6834.275	2.5560235	0.15931737	0.94132694	0.058673065	2.7153409
6834.28	2.6365485	0.15380686	0.94487911	0.055120885	2.7903553
6834.285	2.7253678	0.14692229	0.94884838	0.051151621	2.8722901
6834.29	2.6941895	0.14891806	0.94762138	0.052378625	2.8431075
6834.295	2.600513	0.15865914	0.94249756	0.057502443	2.7591721
6834.3	2.6911411	0.15795574	0.94455936	0.055440637	2.8490968
6834.305	2.620467	0.15886076	0.94284202	0.057157981	2.7793277
6834.31	2.6716028	0.16321312	0.9424255	0.057574504	2.8348159
6834.315	2.6359265	0.16491234	0.94112037	0.058879627	2.8008388
6834.32	2.6495343	0.16427681	0.94161769	0.058382315	2.8138111
6834.325	2.6469409	0.17571889	0.93774705	0.062252948	2.8226597
6834.33	2.6254973	0.17081674	0.93891361	0.061086394	2.796314
6834.335	2.5912062	0.17702399	0.93605156	0.063948436	2.7682302
6834.34	2.6264261	0.18056049	0.93567462	0.064325382	2.8069866
6834.345	2.5398839	0.18748047	0.93125947	0.068740527	2.7273644
6834.35	2.6102487	0.17548144	0.93700702	0.062992978	2.7857302
6834.355	2.6722873	0.19272561	0.93273133	0.06726867	2.8650129
6834.36	2.7219382	0.18896723	0.93508301	0.064916993	2.9109054
6834.365	2.6327877	0.19977415	0.92947227	0.070527729	2.8325618
6834.37	2.6254602	0.1953297	0.93075355	0.069246454	2.8207899
6834.375	2.6856603	0.20019469	0.93062899	0.069371014	2.885855
6834.38	2.6546494	0.21128278	0.92627782	0.073722184	2.8659322
6834.385	2.581341	0.20959149	0.9249027	0.075097298	2.7909325
6834.39	2.5520493	0.22083165	0.92036021	0.079639788	2.772881
6834.395	2.5538863	0.21281446	0.92308006	0.076919939	2.7667008
6834.4	2.6038959	0.20106095	0.92831941	0.071680585	2.8049569
6834.405	2.5291138	0.23256043	0.91579006	0.084209943	2.7616742
6834.41	2.564267	0.22855232	0.9181643	0.0818357	2.7928193
6834.415	2.6896203	0.23319955	0.92021419	0.07978581	2.9228198
6834.42	2.6225932	0.23476727	0.91783771	0.082162286	2.8573604
6834.425	2.5150846	0.24907065	0.90989267	0.090107331	2.7641553
6834.43	2.6476843	0.23899913	0.91720633	0.082793672	2.8866835
6834.435	2.625999	0.23973335	0.91634482	0.08365518	2.8657323
6834.44	2.6447963	0.25302939	0.91268302	0.087316983	2.8978257
6834.445	2.5550114	0.26541663	0.90589491	0.094105089	2.820428
6834.45	2.654929	0.25216447	0.91325891	0.086741095	2.9070934
6834.455	2.5888333	0.26242211	0.90796261	0.09203739	2.8512554
6834.46	2.5207488	0.26250457	0.90568427	0.094315727	2.7832534
6834.465	2.6438799	0.25184329	0.91302922	0.086970775	2.8957232
6834.47	2.5831613	0.25628064	0.9097426	0.090257398	2.8394419
6834.475	2.5507122	0.26120198	0.90710884	0.092891163	2.8119142
6834.48	2.6295846	0.25970641	0.91011414	0.089885862	2.889291
6834.485	2.5419296	0.25980935	0.90726854	0.092731461	2.801739
6834.49	2.6196853	0.26421912	0.90838146	0.091618543	2.8839044
6834.495	2.4763598	0.2704017	0.90155618	0.098443821	2.7467615
6834.5	2.5643319	0.27260756	0.90390787	0.096092132	2.8369394
6834.505	2.6554655	0.266494	0.90879614	0.091203864	2.9219595
6834.51	2.5347913	0.27798157	0.9011717	0.098828303	2.8127729
6834.515	2.5744427	0.26841726	0.90558196	0.094418037	2.84286
6834.52	2.6672213	0.25076673	0.91406177	0.085938232	2.917988
6834.525	2.6536803	0.2501866	0.91384364	0.086156361	2.9038669
6834.53	2.7180186	0.24983163	0.91582068	0.084179324	2.9678502
6834.535	2.6506073	0.24372444	0.9157925	0.084207499	2.8943318
6834.54	2.5871587	0.24401311	0.91381198	0.086188024	2.8311718
6834.545	2.7189526	0.2460118	0.91702706	0.082972936	2.9649644
6834.55	2.6344337	0.24980503	0.91338961	0.086610387	2.8842387
6834.555	2.596066	0.24412656	0.91404577	0.085954228	2.8401925
6834.56	2.6087404	0.23791799	0.91642201	0.083577989	2.8466584
6834.565	2.7252185	0.24171167	0.91853139	0.081468608	2.9669301
6834.57	2.6142463	0.24192638	0.91529701	0.084702994	2.8561727
6834.575	2.6025613	0.23699337	0.91653854	0.083461457	2.8395546
6834.58	2.7472838	0.23038071	0.9226304	0.077369599	2.9776646
6834.585	2.6134189	0.23250305	0.91830308	0.081696918	2.8459219
6834.59	2.7489837	0.21931594	0.92611395	0.07388605	2.9682997
6834.595	2.6841626	0.22384483	0.92302467	0.07697533	2.9080074
6834.6	2.5474156	0.22131369	0.92006669	0.079933307	2.7687293
6834.605	2.6609754	0.20627856	0.9280571	0.071942897	2.867254
6834.61	2.774718	0.22143899	0.92609233	0.073907674	2.996157
6834.615	2.6072274	0.21172005	0.92489394	0.075106065	2.8189474
6834.62	2.7163039	0.20669664	0.92928615	0.070713855	2.9230006
6834.625	2.7863523	0.20948846	0.93007357	0.069926434	2.9958408
6834.63	2.7422001	0.21454276	0.92743949	0.072560508	2.9567429
6834.635	2.553313	0.22436479	0.91922577	0.080774234	2.7776778
6834.64	2.7329734	0.24620524	0.91735801	0.082641988	2.9791786
6834.645	2.6679769	0.24775558	0.91502801	0.084971987	2.9157325
6834.65	2.6589331	0.25656491	0.91199963	0.088000371	2.9154981
6834.655	2.5239388	0.30384851	0.89254902	0.10745098	2.8277873
6834.66	2.5715752	0.32175051	0.88879561	0.11120439	2.8933257
6834.665	2.4295815	0.39048054	0.86153477	0.13846523	2.8200621
6834.67	2.1982396	0.64802743	0.77232374	0.22767626	2.846267
6834.675	1.9223454	0.89049562	0.68341773	0.31658227	2.8128411
6834.68	2.1027649	0.84907014	0.71235854	0.28764146	2.951835
6834.685	2.3396999	0.56083138	0.80664529	0.19335471	2.9005312
6834.69	2.656203	0.34162228	0.8860433	0.1139567	2.9978253
6834.695	2.5663386	0.30411506	0.89405331	0.10594669	2.8704536
6834.7	2.6250958	0.2688061	0.90711292	0.092887083	2.8939019
6834.705	2.6331941	0.2450849	0.91485019	0.085149805	2.878279
6834.71	2.6077919	0.23505241	0.91731788	0.082682124	2.8428443
6834.715	2.7205303	0.21732735	0.92602523	0.073974771	2.9378577
6834.72	2.6234608	0.21656436	0.92374562	0.076254379	2.8400252
6834.725	2.625842	0.20125762	0.92881128	0.071188724	2.8270997
6834.73	2.5446299	0.20186113	0.92650217	0.07349783	2.746491
6834.735	2.7234625	0.20155322	0.93109329	0.068906713	2.9250158
6834.74	2.6320496	0.20775618	0.92684141	0.073158588	2.8398058
6834.745	2.6301852	0.20381244	0.92808306	0.07191694	2.8339976
6834.75	2.6161824	0.20856593	0.92616477	0.073835227	2.8247483
6834.755	2.7805565	0.21168872	0.92925422	0.070745779	2.9922452
6834.76	2.644685	0.21121875	0.92604136	0.073958639	2.8559037
6834.765	2.6042274	0.20218936	0.92795462	0.072045379	2.8064168
6834.77	2.7065521	0.20504531	0.92957635	0.070423647	2.9115974
6834.775	2.670248	0.20004718	0.93030432	0.069695681	2.8702952
6834.78	2.6137927	0.2130468	0.92463428	0.075365724	2.8268395
6834.785	2.776679	0.21756366	0.92733934	0.072660664	2.9942426
6834.79	2.6555575	0.21906482	0.92379353	0.07620647	2.8746223
6834.795	2.6976773	0.2301903	0.92137954	0.078620463	2.9278676
6834.8	2.7975402	0.21296613	0.92925903	0.070740966	3.0105064
6834.805	2.7243315	0.22676155	0.92316015	0.076839849	2.9510931
6834.81	2.5226903	0.24292486	0.91216245	0.087837552	2.7656151
6834.815	2.5547855	0.23573853	0.91552177	0.08447823	2.790524
6834.82	2.8012973	0.23534603	0.92249797	0.077502031	3.0366434
6834.825	2.7462348	0.24561658	0.91790482	0.082095182	2.9918513
6834.83	2.5816227	0.24737379	0.91255776	0.087442237	2.8289965
6834.835	2.6893029	0.25235556	0.91421317	0.085786832	2.9416584
6834.84	2.6158664	0.26450568	0.90816962	0.091830383	2.8803721
6834.845	2.8463517	0.25196465	0.91867691	0.081323089	3.0983163
6834.85	2.6549435	0.26030982	0.91070765	0.089292347	2.9152533
6834.855	2.5490381	0.26821156	0.90479667	0.095203333	2.8172497
6834.86	2.703173	0.26785429	0.90984455	0.090155446	2.9710272
6834.865	2.7364048	0.26601545	0.91139966	0.088600338	3.0024202
6834.87	2.6132671	0.27149773	0.90588566	0.094114337	2.8847648
6834.875	2.5961614	0.27311958	0.90481254	0.095187465	2.869281
6834.88	2.6811813	0.27706643	0.90634103	0.093658968	2.9582477
6834.885	2.7896593	0.26968002	0.91185024	0.088149757	3.0593394
6834.89	2.6967733	0.267124	0.90987407	0.090125928	2.9638973
6834.895	2.6487925	0.26648124	0.90859135	0.091408652	2.9152737
6834.9	2.6624035	0.27324892	0.90692055	0.093079453	2.9356524
6834.905	2.7356194	0.26737717	0.91096321	0.089036788	3.0029966
6834.91	2.6657002	0.27708816	0.90584163	0.094158373	2.9427883
6834.915	2.6251738	0.26781563	0.90742599	0.09257401	2.8929894
6834.92	2.7202548	0.26320955	0.91177721	0.088222789	2.9834644
6834.925	2.7133738	0.2665388	0.91055483	0.089445174	2.9799126
6834.93	2.6719317	0.26784677	0.90888879	0.091111208	2.9397784
6834.935	2.6048239	0.26032586	0.90914058	0.090859422	2.8651498
6834.94	2.6868815	0.25119278	0.91450428	0.085495723	2.9380742
6834.945	2.7010461	0.24135984	0.91797194	0.082028058	2.9424059
6834.95	2.6541118	0.2536595	0.91276498	0.087235025	2.9077713
6834.955	2.6375968	0.25118406	0.91304842	0.086951579	2.8887809
6834.96	2.7564244	0.24699027	0.91776351	0.082236487	3.0034147
6834.965	2.727167	0.23467798	0.92076629	0.079233714	2.961845
6834.97	2.8240643	0.23265311	0.92388792	0.076112076	3.0567174
6834.975	2.5698476	0.23416354	0.9164898	0.083510204	2.8040111
6834.98	2.7408058	0.22909428	0.92286129	0.077138715	2.9699001
6834.985	2.6522589	0.22578845	0.92154804	0.078451957	2.8780474
6834.99	2.6567031	0.22578234	0.92167095	0.078329049	2.8824854
6834.995	2.79992	0.21769954	0.9278572	0.072142803	3.0176196
6835	2.7859806	0.21640337	0.92792282	0.07207718	3.002384
6835.005	2.8187597	0.21165366	0.93015683	0.069843166	3.0304133
6835.01	2.7904785	0.20751597	0.93078174	0.069218263	2.9979945
6835.015	2.8273347	0.20873976	0.93124683	0.068753173	3.0360745
6835.02	2.8035284	0.19334307	0.93548503	0.064514969	2.9968715
6835.025	2.7777352	0.20085443	0.93256727	0.067432729	2.9785896
6835.03	2.7528766	0.1910072	0.93511728	0.064882723	2.9438838
6835.035	2.7773957	0.18636321	0.93711931	0.062880692	2.9637589
6835.04	2.6458513	0.17588427	0.93766805	0.062331947	2.8217355
6835.045	2.6981781	0.18020785	0.93739274	0.062607258	2.8783859
6835.05	2.9114558	0.18359495	0.94068112	0.059318882	3.0950507
6835.055	2.7921708	0.17724007	0.94031137	0.059688631	2.9694109
6835.06	2.785604	0.17164602	0.94195756	0.058042445	2.95725
6835.065	2.7614422	0.16496578	0.94362858	0.056371422	2.926408
6835.07	2.773165	0.16619888	0.94345754	0.056542464	2.9393639
6835.075	2.7779588	0.16950804	0.94249026	0.057509736	2.9474669
6835.08	2.7740307	0.17197116	0.94162558	0.058374423	2.9460019
6835.085	2.7548729	0.16276079	0.9442148	0.055785204	2.9176337
6835.09	2.7553158	0.17122519	0.9414923	0.058507703	2.926541
6835.095	2.9090843	0.16233001	0.94714812	0.052851875	3.0714143
6835.1	2.9469387	0.16148973	0.94804779	0.051952211	3.1084284
