#{"prms":{"sampleRate":200000,"runID":0,"groupID":"21-01-19_11-34-28","param":"mwTime","from":1.0,"to":100.0,"by":1.0},"mmexec":"","sender":"MOTMaster","cmd":"scan","id":1053347577}
#{"params":{"runID":0.0,"aChn":0.0,"ElapsedTime":0.0,"PLLFreq":6834.51,"ChirpRate":0.05,"ChirpDuration":0.2,"Pulse1Power":22.0,"Pulse1Duration":30.0,"Pulse1Phase":0.0,"Pulse2Power":22.0,"Pulse2Duration":30.0,"Pulse2Phase":0.0,"Pulse3Power":22.0,"Pulse3Duration":30.0,"Pulse3Phase":0.0,"VelPulsePower":22.0,"VelPulseDuration":100.0,"VelPulsePhase":0.0,"IntTime1":10.0,"IntTime2":10.0,"test":0.0,"AnalogClockFrequncy":100000.0,"AnalogLength":0.0,"HSClockFrequency":200000000.0,"2DCoil":9.0,"AnalogClockFrequency":100000.0,"yBiasImg":9.0,"2DAtten":4.15,"YpFreqMOT":6.785,"YmFreqLaunch":6.815,"YmFreqMOT":6.828,"DetFreq":3.8,"DetAttn":0.0,"y2DBias":0.0,"ZmAttenState":9.0,"YmAttenMOT":1.78,"YmAttenImg":2.65,"x2DBias":0.0,"PushAtten":7.5,"XpFreqMOT":6.735,"3DCoil":3.1,"2DFreq":7.11,"2DPushFreq":7.1,"ZmAttenImg":10.0,"mwTime":1.0,"YBiasState":9.9,"yBiasState":9.9,"zBiasMW":9.0,"YBiasMW":9.0,"zBiasInt":9.0,"YpAttenLaunch":2.5,"XpFreqLaunch":6.741,"YpFreqLaunch":6.799,"xBiasInt":9.0,"ZmAttenMOT":3.82,"ZpAttenMOT":6.9,"xBiasMot":-2.5,"yBiasMot":-0.25,"zBiasMot":-0.5,"XBiasState":0.0,"xBiasState":-2.5,"zBiasImg":-0.5,"ZBiasState":-0.5,"YBiasInt":-0.5,"ZpFreqMOT":6.807,"ZmFreqMOT":6.833,"XmFreqLaunch":6.896,"XmFreqMOT":6.901,"XmAttenLaunch":9.0,"ZpAttenState":3.2,"ZpAttenImg":6.7,"XpAttenLaunch":4.0,"XpAttenImg":2.8,"XpAttenMOT":6.2,"YpAttenMOT":6.1,"YpAttenImg":4.0,"XmAttenMOT":3.85,"XmAttenImg":2.5,"xBiasMW":-3.5,"":0.0,"ZmFreqLaunch":6.878,"ZpFreqLaunch":6.762,"rPhase0":0.0,"rPhase":50.0,"PLLFreqX":6834.51,"PLLFreqY":6834.48,"ChirpRateX":0.65,"ChirpRateY":0.32,"MWFreq":6834.682,"xBiasImg":-2.5}}
#{"steps":{"Initialization 1":0.1,"Initialization 2":1.0,"2D3D":200.0,"3Donly":10.0,"B field off":6.0,"Launch":1.0,"Freq Ramp":0.1,"Wait":5.74,"Intensity ramp":0.2,"BSwitch0":1.0,"Step1":0.1,"Step2":0.06,"BSwitch1":2.0,"BSwitch2":1.0,"MW0":0.095,"Wait2":5.71,"VelSel":0.058,"B3":1.0,"Pulse 1":0.03,"Delay":0.1,"Dark2":0.4,"Pulse 2":0.001,"Dark 3":0.5,"Pulse 3":0.03,"Detection B field 1":3.21,"Detection field 2":2.5,"Dwell":2.0,"N2":0.3,"NTot":0.3,"BlowAway2":100.0,"DetWait":1.7,"B2":0.3,"BTot":0.3,"Bg":0.3,"Off":300.0}}


XAxis	N1	N2	RN1	RN2	NTot
1	2.790232	0.10254882	0.96455009	0.035449909	2.8927808
2	2.8357166	0.10433514	0.96451248	0.035487519	2.9400517
3	2.8682778	0.12082297	0.95957882	0.040421178	2.9891008
4	2.8398889	0.12135258	0.95901969	0.040980306	2.9612414
5	2.8556583	0.12843385	0.9569605	0.043039505	2.9840921
6	2.7160019	0.14372451	0.94974187	0.050258132	2.8597264
7	2.9236627	0.15325625	0.95019165	0.049808348	3.0769189
8	2.8337546	0.15658705	0.94763573	0.052364267	2.9903417
9	2.8308416	0.17149799	0.94287855	0.057121449	3.0023396
10	2.9777907	0.17564228	0.94430125	0.055698749	3.153433
11	3.0256468	0.176665	0.94483204	0.055167958	3.2023118
12	3.0433309	0.19464223	0.93988763	0.060112368	3.2379731
13	2.8580137	0.20432784	0.93327725	0.066722747	3.0623415
14	2.942737	0.2032489	0.93539421	0.06460579	3.1459859
15	2.993392	0.21422558	0.93321349	0.066786508	3.2076176
16	2.9217103	0.2203866	0.92986003	0.070139975	3.1420969
17	2.8771396	0.24110642	0.92267883	0.077321167	3.118246
18	2.8104251	0.2269565	0.9252789	0.074721101	3.0373816
19	2.7801549	0.24656586	0.91853697	0.081463034	3.0267208
20	2.8499305	0.24500822	0.92083584	0.079164159	3.0949387
21	2.9672121	0.24657347	0.92327632	0.076723684	3.2137856
22	2.9885662	0.23687765	0.92655967	0.073440328	3.2254438
23	2.8053866	0.24909717	0.91844868	0.081551317	3.0544837
24	2.8427682	0.25198869	0.91857561	0.081424387	3.0947569
25	2.8503403	0.26012508	0.91637101	0.083628989	3.1104654
26	2.8852842	0.27857901	0.91194973	0.088050271	3.1638632
27	2.9343564	0.26493559	0.91718931	0.082810693	3.199292
28	2.8631721	0.27716597	0.91174009	0.088259913	3.1403381
29	2.7348758	0.25941567	0.91336325	0.086636748	2.9942915
30	2.8248955	0.26359498	0.91465249	0.085347514	3.0884905
31	2.8797986	0.25457037	0.91878098	0.081219018	3.1343689
32	3.0118054	0.26069176	0.92033858	0.079661417	3.2724972
33	2.829362	0.26881251	0.91323519	0.086764806	3.0981745
34	2.8897105	0.26458684	0.91611861	0.083881387	3.1542973
35	2.8644825	0.27060696	0.91368445	0.086315548	3.1350894
36	2.8342214	0.28064194	0.90990233	0.090097672	3.1148634
37	2.8789166	0.26504997	0.91569568	0.084304322	3.1439665
38	2.8988156	0.26584798	0.91599487	0.084005131	3.1646636
39	2.8737104	0.26778854	0.91475772	0.085242282	3.141499
40	2.8575259	0.2681949	0.91419742	0.085802578	3.1257208
41	2.6955985	0.2814935	0.90544683	0.094553175	2.9770921
42	2.8822168	0.26328082	0.91629915	0.083700847	3.1454976
43	2.8678083	0.26676127	0.914897	0.085103	3.1345696
44	2.88223	0.2696136	0.91445845	0.085541553	3.1518436
45	2.8511751	0.26315104	0.91550305	0.084496945	3.1143261
46	2.8428063	0.26645945	0.91430149	0.085698514	3.1092657
47	2.7845844	0.26783412	0.91225511	0.087744887	3.0524185
48	2.8952062	0.26060478	0.91742066	0.082579336	3.155811
49	2.767575	0.25930716	0.91433193	0.085668075	3.0268821
50	2.9389995	0.261773	0.91821568	0.081784318	3.2007725
51	2.915291	0.26398402	0.91696723	0.083032771	3.179275
52	2.8664543	0.25703701	0.91770843	0.082291573	3.1234913
53	2.8852243	0.25585522	0.91854545	0.08145455	3.1410796
54	2.8178639	0.2680086	0.91314981	0.086850186	3.0858725
55	2.8817934	0.2587159	0.91761976	0.082380238	3.1405092
56	2.84799	0.2522111	0.91864686	0.081353141	3.1002011
57	2.9091497	0.25553476	0.91925427	0.08074573	3.1646845
58	2.8674454	0.26286725	0.91602524	0.083974761	3.1303126
59	2.7726948	0.26550601	0.91261078	0.087389222	3.0382008
60	2.766517	0.26252726	0.91333	0.086669999	3.0290443
61	2.9253288	0.24342722	0.92317893	0.076821068	3.168756
62	2.9806581	0.25373566	0.92155078	0.078449217	3.2343937
63	2.7784975	0.26136557	0.91402061	0.085979387	3.0398631
64	2.844068	0.25563258	0.91752991	0.082470088	3.0997006
65	2.9076737	0.26302508	0.91704508	0.082954923	3.1706988
66	2.9592836	0.25339195	0.92112744	0.078872561	3.2126755
67	2.8554266	0.26957835	0.91373507	0.086264935	3.125005
68	2.9262915	0.26414314	0.91720779	0.082792212	3.1904346
69	2.9625629	0.2592201	0.91954142	0.080458584	3.221783
70	2.8335214	0.26858382	0.91341886	0.086581144	3.1021053
71	3.0538892	0.25606444	0.92263806	0.077361942	3.3099536
72	2.9345224	0.25314601	0.92058584	0.079414161	3.1876684
73	2.9243893	0.26583967	0.91667066	0.083329339	3.1902289
74	2.8974593	0.27330886	0.91380358	0.086196418	3.1707682
75	2.8917487	0.25989011	0.91753811	0.082461895	3.1516389
76	2.8355769	0.26164175	0.91552364	0.084476359	3.0972187
77	2.8752855	0.27402982	0.91298749	0.087012506	3.1493153
78	2.8920146	0.25923324	0.91773632	0.082263678	3.1512478
79	2.868733	0.28077	0.9108526	0.089147397	3.149503
80	2.8022043	0.2793961	0.90933409	0.090665909	3.0816004
81	2.9656233	0.27019289	0.91649931	0.083500694	3.2358161
82	2.993487	0.26721291	0.91805045	0.081949553	3.2607
83	2.7892214	0.28973366	0.90589871	0.094101295	3.0789551
84	2.8881898	0.27549852	0.91291856	0.087081435	3.1636883
85	2.8151085	0.29423949	0.90536939	0.094630605	3.109348
86	2.7259565	0.28282411	0.90600042	0.093999579	3.0087806
87	2.9427746	0.26658753	0.91693442	0.083065579	3.2093622
88	2.7416243	0.28634699	0.90543273	0.094567274	3.0279713
89	2.9676792	0.27428735	0.91539476	0.084605236	3.2419666
90	2.7896007	0.29119486	0.90548063	0.094519371	3.0807956
91	2.974418	0.29021807	0.91110247	0.088897527	3.264636
92	2.8844937	0.28171089	0.91102568	0.088974316	3.1662046
93	2.8894597	0.29348648	0.90779408	0.092205921	3.1829462
94	2.8170887	0.29536545	0.90510207	0.094897926	3.1124542
95	2.8716086	0.28226618	0.91050178	0.089498222	3.1538748
96	2.9270771	0.29865757	0.90741409	0.092585907	3.2257347
97	2.9239072	0.2971706	0.90774187	0.092258126	3.2210778
98	2.7510079	0.300488	0.90152764	0.098472359	3.0514959
99	2.9280982	0.30274299	0.90629592	0.093704078	3.2308412
100	2.7888745	0.30113617	0.90254526	0.097454735	3.0900106
