#{"prms":{"sampleRate":200000,"runID":0,"groupID":"21-01-19_11-43-45","param":"mwTime","from":1.0,"to":100.0,"by":1.0},"mmexec":"","sender":"MOTMaster","cmd":"scan","id":449712913}
#{"params":{"runID":0.0,"aChn":0.0,"ElapsedTime":0.0,"PLLFreq":6834.51,"ChirpRate":0.05,"ChirpDuration":0.2,"Pulse1Power":22.0,"Pulse1Duration":30.0,"Pulse1Phase":0.0,"Pulse2Power":22.0,"Pulse2Duration":30.0,"Pulse2Phase":0.0,"Pulse3Power":22.0,"Pulse3Duration":30.0,"Pulse3Phase":0.0,"VelPulsePower":22.0,"VelPulseDuration":100.0,"VelPulsePhase":0.0,"IntTime1":10.0,"IntTime2":10.0,"test":0.0,"AnalogClockFrequncy":100000.0,"AnalogLength":0.0,"HSClockFrequency":200000000.0,"2DCoil":9.0,"AnalogClockFrequency":100000.0,"yBiasImg":9.0,"2DAtten":4.15,"YpFreqMOT":6.785,"YmFreqLaunch":6.815,"YmFreqMOT":6.828,"DetFreq":3.8,"DetAttn":0.0,"y2DBias":0.0,"ZmAttenState":9.0,"YmAttenMOT":1.78,"YmAttenImg":2.65,"x2DBias":0.0,"PushAtten":7.5,"XpFreqMOT":6.735,"3DCoil":3.1,"2DFreq":7.11,"2DPushFreq":7.1,"ZmAttenImg":10.0,"mwTime":1.0,"YBiasState":9.9,"yBiasState":9.9,"zBiasMW":9.0,"YBiasMW":9.0,"zBiasInt":9.0,"YpAttenLaunch":2.5,"XpFreqLaunch":6.741,"YpFreqLaunch":6.799,"xBiasInt":9.0,"ZmAttenMOT":3.82,"ZpAttenMOT":6.9,"xBiasMot":-2.5,"yBiasMot":-0.25,"zBiasMot":-0.5,"XBiasState":0.0,"xBiasState":-2.5,"zBiasImg":-0.5,"ZBiasState":-0.5,"YBiasInt":-0.5,"ZpFreqMOT":6.807,"ZmFreqMOT":6.833,"XmFreqLaunch":6.896,"XmFreqMOT":6.901,"XmAttenLaunch":9.0,"ZpAttenState":3.2,"ZpAttenImg":6.7,"XpAttenLaunch":4.0,"XpAttenImg":2.8,"XpAttenMOT":6.2,"YpAttenMOT":6.1,"YpAttenImg":4.0,"XmAttenMOT":3.85,"XmAttenImg":2.5,"xBiasMW":-3.5,"":0.0,"ZmFreqLaunch":6.878,"ZpFreqLaunch":6.762,"rPhase0":0.0,"rPhase":50.0,"PLLFreqX":6834.51,"PLLFreqY":6834.48,"ChirpRateX":0.65,"ChirpRateY":0.32,"MWFreq":6834.682,"xBiasImg":-2.5}}
#{"steps":{"Initialization 1":0.1,"Initialization 2":1.0,"2D3D":200.0,"3Donly":10.0,"B field off":6.0,"Launch":1.0,"Freq Ramp":0.1,"Wait":5.74,"Intensity ramp":0.2,"BSwitch0":1.0,"Step1":0.1,"Step2":0.06,"BSwitch1":2.0,"BSwitch2":1.0,"MW0":0.095,"Wait2":5.71,"VelSel":0.058,"B3":1.0,"Pulse 1":0.03,"Delay":0.1,"Dark2":0.4,"Pulse 2":0.001,"Dark 3":0.5,"Pulse 3":0.03,"Detection B field 1":3.21,"Detection field 2":2.5,"Dwell":2.0,"N2":0.3,"NTot":0.3,"BlowAway2":100.0,"DetWait":1.7,"B2":0.3,"BTot":0.3,"Bg":0.3,"Off":300.0}}


XAxis	N1	N2	RN1	RN2	NTot
1	2.9185174	0.1024993	0.96607126	0.033928744	3.0210167
2	2.8754653	0.10581766	0.964506	0.035494001	2.9812829
3	2.8457595	0.11467498	0.96126414	0.038735861	2.9604345
4	2.964955	0.10987578	0.96426607	0.035733926	3.0748307
5	3.009509	0.11725306	0.96250017	0.037499833	3.1267621
6	3.0239695	0.12450415	0.96045571	0.039544289	3.1484736
7	3.055054	0.12785467	0.95983087	0.040169128	3.1829087
8	3.0008053	0.12460682	0.96013108	0.039868924	3.1254121
9	2.8451144	0.14009499	0.9530703	0.046929704	2.9852094
10	3.0281462	0.13609328	0.95699021	0.04300979	3.1642395
11	3.06855	0.13915064	0.95661982	0.043380182	3.2077007
12	3.010215	0.14219607	0.95489292	0.045107084	3.152411
13	3.1089759	0.14845145	0.95442678	0.045573218	3.2574274
14	3.0140507	0.15290559	0.95171844	0.048281559	3.1669563
15	3.0076172	0.15287364	0.95162978	0.04837022	3.1604909
16	2.9833825	0.15600595	0.9503069	0.049693101	3.1393884
17	3.060755	0.16296241	0.94944892	0.050551084	3.2237175
18	2.9883866	0.16301248	0.94827298	0.051727018	3.1513991
19	3.0115274	0.16882679	0.94691573	0.053084274	3.1803542
20	2.9298409	0.17302623	0.94423666	0.055763339	3.1028672
21	3.0788212	0.17236631	0.94698359	0.053016415	3.2511875
22	3.008349	0.18171246	0.94303794	0.056962055	3.1900615
23	3.0568884	0.17966131	0.94448986	0.055510135	3.2365497
24	3.015979	0.18127001	0.94330438	0.056695618	3.197249
25	2.9800037	0.18107898	0.94271615	0.057283847	3.1610827
26	3.0668222	0.18569927	0.94290606	0.057093941	3.2525215
27	2.9587533	0.18775929	0.94032781	0.059672188	3.1465126
28	2.8480085	0.19763798	0.93510804	0.064891964	3.0456465
29	3.003376	0.1905917	0.94032761	0.059672393	3.1939677
30	3.1343862	0.18264715	0.9449366	0.055063403	3.3170334
31	2.995798	0.20629498	0.93557496	0.064425042	3.202093
32	2.917422	0.2008031	0.9356034	0.064396602	3.1182251
33	3.0216679	0.20322576	0.93698218	0.063017816	3.2248936
34	2.9808111	0.20439501	0.93582989	0.064170105	3.1852061
35	2.8767695	0.205921	0.93320089	0.066799115	3.0826905
36	2.8890396	0.203665	0.93414663	0.065853365	3.0927046
37	2.8758191	0.21933891	0.92913483	0.070865175	3.095158
38	2.9265106	0.21080131	0.9328083	0.067191696	3.1373119
39	2.8644361	0.21533607	0.93008052	0.06991948	3.0797721
40	3.0327347	0.20897617	0.93553522	0.064464778	3.2417109
41	2.874804	0.22098623	0.92861718	0.071382817	3.0957902
42	2.9073947	0.22224163	0.92898804	0.071011964	3.1296364
43	2.8875115	0.20441292	0.93388812	0.066111875	3.0919244
44	3.0557257	0.21756377	0.9335336	0.0664664	3.2732895
45	2.8806885	0.2152723	0.93046672	0.069533277	3.0959608
46	2.9570515	0.22143334	0.93033368	0.069666318	3.1784849
47	2.8554538	0.21382312	0.93033437	0.069665633	3.0692769
48	2.9137065	0.22053765	0.9296361	0.070363904	3.1342441
49	3.1025357	0.21366549	0.9355692	0.064430799	3.3162012
50	2.8467424	0.2298538	0.92528958	0.074710423	3.0765962
51	3.106679	0.21600406	0.93499107	0.065008926	3.3226831
52	3.0045721	0.22198204	0.93120151	0.068798486	3.2265542
53	3.0444089	0.21614426	0.93370933	0.066290671	3.2605532
54	2.9677574	0.2304373	0.9279477	0.072052304	3.1981947
55	2.987574	0.21611736	0.93254114	0.067458859	3.2036913
56	2.845719	0.22954529	0.92535754	0.074642459	3.0752643
57	2.9904664	0.23472318	0.9272219	0.072778103	3.2251895
58	3.0132299	0.23269866	0.9283106	0.071689398	3.2459285
59	2.9759199	0.23178234	0.92774194	0.072258059	3.2077022
60	2.8370103	0.2287642	0.92538127	0.074618728	3.0657745
61	2.8743179	0.23138388	0.92549707	0.074502927	3.1057018
62	2.8675511	0.23179014	0.92521309	0.074786907	3.0993412
63	2.9032251	0.22573722	0.92785557	0.072144435	3.1289623
64	2.8608189	0.23120372	0.92522573	0.074774266	3.0920226
65	2.9432536	0.23000289	0.92751834	0.072481658	3.1732565
66	3.0145324	0.22635229	0.93015725	0.069842745	3.2408847
67	2.9701442	0.21688235	0.93194837	0.068051631	3.1870265
68	2.8208666	0.2240533	0.92641734	0.073582657	3.0449199
69	2.8497026	0.23040022	0.92519723	0.074802769	3.0801028
70	2.9587121	0.21864347	0.93118697	0.068813033	3.1773556
71	2.9976098	0.21356573	0.93349298	0.066507024	3.2111755
72	2.9533368	0.23204763	0.92715239	0.072847605	3.1853845
73	2.9666727	0.22721823	0.92885849	0.071141512	3.193891
74	2.8882844	0.22102038	0.92891646	0.071083538	3.1093048
75	2.8711546	0.2289337	0.92615252	0.073847479	3.1000883
76	2.8396564	0.22670221	0.92606794	0.073932062	3.0663586
77	2.9010143	0.22361575	0.92843449	0.071565512	3.12463
78	2.9069632	0.22339156	0.92863698	0.071363018	3.1303547
79	2.9857145	0.22368632	0.93030278	0.06969722	3.2094008
80	2.8708216	0.2149203	0.93035052	0.069649475	3.0857419
81	2.9089855	0.21710744	0.93054991	0.069450092	3.1260929
82	2.9928653	0.2076852	0.93510954	0.064890461	3.2005505
83	2.8272466	0.21263255	0.9300523	0.069947698	3.0398791
84	2.9472695	0.23249749	0.92688222	0.073117775	3.179767
85	2.9919984	0.21569347	0.93275742	0.067242579	3.2076918
86	3.0929685	0.21093134	0.93615686	0.063843142	3.3038998
87	2.89622	0.22213	0.92876682	0.071233184	3.11835
88	2.9671983	0.21716568	0.93180249	0.068197506	3.184364
89	2.8064058	0.21888845	0.92764722	0.072352781	3.0252942
90	2.9905236	0.22020518	0.93141583	0.068584172	3.2107288
91	2.8996255	0.22201424	0.92887897	0.071121031	3.1216397
92	2.9846067	0.21091928	0.93399544	0.066004558	3.195526
93	2.9620308	0.21459341	0.93244608	0.067553917	3.1766242
94	2.9009457	0.21631599	0.93060705	0.06939295	3.1172617
95	2.9667577	0.22896318	0.9283532	0.071646803	3.1957208
96	2.9770176	0.22082238	0.9309464	0.069053604	3.19784
97	2.9440941	0.22102504	0.93016849	0.069831507	3.1651191
98	2.9236249	0.22316854	0.92908065	0.070919349	3.1467935
99	2.9949154	0.21695929	0.93245089	0.067549113	3.2118747
100	3.0223451	0.21835698	0.93262047	0.067379527	3.2407021
