#{"prms":{"sampleRate":200000,"runID":0,"groupID":"21-01-19_11-17-05","param":"PLLFreq","from":6834.1,"to":6835.1,"by":0.005},"mmexec":"","sender":"MOTMaster","cmd":"scan","id":1712181720}
#{"params":{"runID":0.0,"aChn":0.0,"ElapsedTime":0.0,"PLLFreq":6834.1,"ChirpRate":0.05,"ChirpDuration":0.2,"Pulse1Power":22.0,"Pulse1Duration":30.0,"Pulse1Phase":0.0,"Pulse2Power":22.0,"Pulse2Duration":30.0,"Pulse2Phase":0.0,"Pulse3Power":22.0,"Pulse3Duration":30.0,"Pulse3Phase":0.0,"VelPulsePower":22.0,"VelPulseDuration":100.0,"VelPulsePhase":0.0,"IntTime1":10.0,"IntTime2":10.0,"test":0.0,"AnalogClockFrequncy":100000.0,"AnalogLength":0.0,"HSClockFrequency":200000000.0,"2DCoil":9.0,"AnalogClockFrequency":100000.0,"yBiasImg":9.0,"2DAtten":4.15,"YpFreqMOT":6.785,"YmFreqLaunch":6.815,"YmFreqMOT":6.828,"DetFreq":3.8,"DetAttn":0.0,"y2DBias":0.0,"ZmAttenState":9.0,"YmAttenMOT":1.78,"YmAttenImg":2.65,"x2DBias":0.0,"PushAtten":7.5,"XpFreqMOT":6.735,"3DCoil":3.1,"2DFreq":7.11,"2DPushFreq":7.1,"ZmAttenImg":10.0,"mwTime":10.0,"YBiasState":9.9,"yBiasState":9.9,"zBiasMW":9.0,"YBiasMW":9.0,"zBiasInt":9.0,"YpAttenLaunch":2.5,"XpFreqLaunch":6.741,"YpFreqLaunch":6.799,"xBiasInt":9.0,"ZmAttenMOT":3.82,"ZpAttenMOT":6.9,"xBiasMot":-2.5,"yBiasMot":-0.25,"zBiasMot":-0.5,"XBiasState":0.0,"xBiasState":-2.5,"zBiasImg":-0.5,"ZBiasState":-0.5,"YBiasInt":-0.5,"ZpFreqMOT":6.807,"ZmFreqMOT":6.833,"XmFreqLaunch":6.896,"XmFreqMOT":6.901,"XmAttenLaunch":9.0,"ZpAttenState":3.2,"ZpAttenImg":6.7,"XpAttenLaunch":4.0,"XpAttenImg":2.8,"XpAttenMOT":6.2,"YpAttenMOT":6.1,"YpAttenImg":4.0,"XmAttenMOT":3.85,"XmAttenImg":2.5,"xBiasMW":-3.5,"":0.0,"ZmFreqLaunch":6.878,"ZpFreqLaunch":6.762,"rPhase0":0.0,"rPhase":50.0,"PLLFreqX":6834.51,"PLLFreqY":6834.48,"ChirpRateX":0.65,"ChirpRateY":0.32,"MWFreq":6834.682,"xBiasImg":-2.5}}
#{"steps":{"Initialization 1":0.1,"Initialization 2":1.0,"2D3D":200.0,"3Donly":10.0,"B field off":6.0,"Launch":1.0,"Freq Ramp":0.1,"Wait":5.74,"Intensity ramp":0.2,"BSwitch0":1.0,"Step1":0.1,"Step2":0.06,"BSwitch1":2.0,"BSwitch2":1.0,"MW0":0.095,"Wait2":60.71,"VelSel":0.058,"B3":1.0,"Pulse 1":0.03,"Delay":0.1,"Dark2":0.4,"Pulse 2":0.07,"Dark 3":0.5,"Pulse 3":0.03,"Detection B field 1":3.21,"Detection field 2":2.5,"Dwell":2.0,"N2":0.3,"NTot":0.3,"BlowAway2":100.0,"DetWait":1.7,"B2":0.3,"BTot":0.3,"Bg":0.3,"Off":300.0}}


XAxis	N1	N2	RN1	RN2	NTot
6834.1	0.59756879	0.026681537	0.95725827	0.042741727	0.62425032
6834.105	0.58510009	0.026923158	0.95600958	0.043990417	0.61202324
6834.11	0.5866583	0.02984223	0.95159415	0.048405845	0.61650053
6834.115	0.59567591	0.034820757	0.9447725	0.055227503	0.63049667
6834.12	0.61572808	0.029573842	0.95417054	0.045829465	0.64530192
6834.125	0.60357619	0.035991071	0.9437259	0.056274098	0.63956726
6834.13	0.60504796	0.03132441	0.9507766	0.049223397	0.63637237
6834.135	0.62923924	0.031317171	0.95258971	0.047410289	0.66055641
6834.14	0.62457395	0.030075199	0.95405906	0.045940943	0.65464915
6834.145	0.63903303	0.034421639	0.94888797	0.051112035	0.67345467
6834.15	0.66623688	0.030939199	0.95562212	0.044377884	0.69717608
6834.155	0.65296163	0.03232382	0.9528316	0.047168403	0.68528545
6834.16	0.67439237	0.037958927	0.94671319	0.053286808	0.71235129
6834.165	0.63307217	0.033691875	0.94946957	0.050530431	0.66676404
6834.17	0.63231193	0.038593371	0.94247568	0.05752432	0.6709053
6834.175	0.64297878	0.031134492	0.95381415	0.046185846	0.67411328
6834.18	0.62981372	0.034548944	0.94799686	0.052003138	0.66436267
6834.185	0.64420022	0.03328529	0.95086937	0.04913063	0.67748551
6834.19	0.65932512	0.034437394	0.95036141	0.049638591	0.69376252
6834.195	0.65861877	0.031904119	0.95379716	0.046202841	0.69052289
6834.2	0.64510267	0.035865614	0.94733145	0.052668553	0.68096828
6834.205	0.66532418	0.031751389	0.95445058	0.045549421	0.69707556
6834.21	0.66881941	0.034991452	0.95028288	0.049717124	0.70381086
6834.215	0.63276791	0.033687237	0.94945311	0.050546893	0.66645515
6834.22	0.65317253	0.032746561	0.95225886	0.047741143	0.68591909
6834.225	0.66293524	0.0333585	0.95209134	0.04790866	0.69629374
6834.23	0.6835651	0.031768767	0.9555889	0.044411104	0.71533387
6834.235	0.64982537	0.038896475	0.94352368	0.056476319	0.68872184
6834.24	0.67439358	0.036680837	0.94841491	0.051585089	0.71107441
6834.245	0.64081926	0.036666494	0.94587858	0.054121424	0.67748575
6834.25	0.65556095	0.041565821	0.94037552	0.059624479	0.69712677
6834.255	0.64533206	0.036180047	0.9469121	0.053087901	0.68151211
6834.26	0.64614082	0.040810858	0.94059137	0.05940863	0.68695167
6834.265	0.61786954	0.041069235	0.93767367	0.062326329	0.65893878
6834.27	0.67962083	0.042704222	0.9408795	0.059120504	0.72232505
6834.275	0.65472762	0.041246581	0.94073547	0.059264526	0.6959742
6834.28	0.66056845	0.044696525	0.93662449	0.063375506	0.70526498
6834.285	0.63552279	0.038197683	0.94330337	0.056696633	0.67372047
6834.29	0.61445553	0.045450808	0.93112537	0.068874634	0.65990634
6834.295	0.64019959	0.040303679	0.94077372	0.059226282	0.68050327
6834.3	0.65786671	0.04261211	0.93916717	0.060832832	0.70047882
6834.305	0.63175653	0.043534147	0.93553273	0.064467271	0.67529068
6834.31	0.65224614	0.047008932	0.93277284	0.06722716	0.69925507
6834.315	0.6316526	0.04615309	0.93190808	0.068091918	0.67780569
6834.32	0.61272698	0.043483218	0.93373584	0.06626416	0.65621019
6834.325	0.62085508	0.051321464	0.92364883	0.076351167	0.67217654
6834.33	0.61189492	0.045273386	0.93110839	0.068891615	0.65716831
6834.335	0.6408176	0.04995814	0.92767821	0.072321793	0.69077574
6834.34	0.59190072	0.048763797	0.9238856	0.076114403	0.64066451
6834.345	0.6196073	0.056308626	0.91669286	0.083307145	0.67591592
6834.35	0.61770753	0.052065137	0.92226446	0.077735535	0.66977266
6834.355	0.61753114	0.055597448	0.91740442	0.082595583	0.67312859
6834.36	0.62938027	0.057034713	0.91690928	0.083090717	0.68641498
6834.365	0.63365437	0.055868171	0.91897557	0.081024431	0.68952254
6834.37	0.63111455	0.055301317	0.91943468	0.080565324	0.68641586
6834.375	0.6227193	0.062205745	0.90917876	0.090821245	0.68492505
6834.38	0.63150317	0.060285577	0.91285551	0.087144489	0.69178875
6834.385	0.59135211	0.068110233	0.89671854	0.10328146	0.65946234
6834.39	0.61468518	0.063697466	0.90610393	0.093896072	0.67838265
6834.395	0.60257167	0.066611917	0.90045793	0.099542067	0.66918358
6834.4	0.64206834	0.060754926	0.9135559	0.086444102	0.70282327
6834.405	0.62987921	0.068436126	0.90199825	0.098001752	0.69831533
6834.41	0.60946215	0.064604744	0.90415678	0.095843223	0.67406689
6834.415	0.61650671	0.069241472	0.89902785	0.10097215	0.68574819
6834.42	0.63326032	0.063955953	0.90826956	0.091730437	0.69721627
6834.425	0.5926053	0.06974477	0.89470104	0.10529896	0.66235007
6834.43	0.63829083	0.066612464	0.90550127	0.094498727	0.70490329
6834.435	0.62243422	0.067533203	0.90212117	0.097878828	0.68996742
6834.44	0.57586582	0.075885299	0.88356706	0.11643294	0.65175111
6834.445	0.63133611	0.065737625	0.90569488	0.094305123	0.69707373
6834.45	0.6216512	0.072762644	0.89521718	0.10478282	0.69441385
6834.455	0.63397658	0.072475598	0.89740905	0.10259095	0.70645218
6834.46	0.61854144	0.072489283	0.89509977	0.10490023	0.69103073
6834.465	0.6223389	0.076569694	0.89044391	0.10955609	0.69890859
6834.47	0.59848871	0.066502105	0.89999545	0.10000455	0.66499082
6834.475	0.59185301	0.069453728	0.89497502	0.10502498	0.66130674
6834.48	0.61037144	0.066961071	0.90114003	0.098859968	0.67733251
6834.485	0.59704945	0.071613293	0.89290073	0.10709927	0.66866274
6834.49	0.61437073	0.068851967	0.89922471	0.10077529	0.6832227
6834.495	0.60283834	0.068758099	0.89761992	0.10238008	0.67159644
6834.5	0.58800159	0.068829046	0.89521036	0.10478964	0.65683064
6834.505	0.64354813	0.066170992	0.90676454	0.093235464	0.70971912
6834.51	0.6323032	0.0649437	0.90685695	0.093143046	0.6972469
6834.515	0.60717222	0.064777833	0.90359725	0.096402749	0.67195006
6834.52	0.58315006	0.068509241	0.89486954	0.10513046	0.6516593
6834.525	0.62767218	0.05604352	0.91803096	0.08196904	0.6837157
6834.53	0.6395321	0.062845732	0.91052432	0.089475677	0.70237784
6834.535	0.62687941	0.061244616	0.91099771	0.089002293	0.68812402
6834.54	0.62553801	0.057461691	0.91586864	0.084131356	0.6829997
6834.545	0.62081519	0.056533132	0.91653758	0.083462422	0.67734833
6834.55	0.63881963	0.055906793	0.91952689	0.080473106	0.69472642
6834.555	0.64924624	0.058477011	0.91737305	0.082626945	0.70772326
6834.56	0.62226177	0.059467961	0.91276901	0.087230993	0.68172973
6834.565	0.61479807	0.054621937	0.91840409	0.081595913	0.66942
6834.57	0.60867872	0.059748373	0.91061348	0.089386522	0.66842709
6834.575	0.6151986	0.056200584	0.91629334	0.083706661	0.67139919
6834.58	0.60749052	0.056912367	0.91434058	0.085659422	0.66440289
6834.585	0.63608667	0.052841439	0.92329905	0.076700948	0.6889281
6834.59	0.62759556	0.058367821	0.91491117	0.085088829	0.68596338
6834.595	0.62158539	0.058150308	0.91445159	0.08554841	0.6797357
6834.6	0.63627796	0.049803355	0.92740896	0.072591039	0.68608132
6834.605	0.65190247	0.056011157	0.92087854	0.079121456	0.70791363
6834.61	0.61298311	0.048482291	0.92670472	0.073295278	0.6614654
6834.615	0.63384432	0.053794575	0.92176915	0.07823085	0.6876389
6834.62	0.63933272	0.047891199	0.93031209	0.06968791	0.68722392
6834.625	0.68072109	0.055228825	0.92495573	0.075044271	0.73594991
6834.63	0.60814546	0.053399187	0.91928105	0.080718947	0.66154464
6834.635	0.62919866	0.054095438	0.9208314	0.079168601	0.68329409
6834.64	0.63624211	0.05262234	0.92361002	0.076389977	0.68886445
6834.645	0.63647764	0.049832327	0.92739093	0.072609067	0.68630997
6834.65	0.6209473	0.054168891	0.9197636	0.080236397	0.67511619
6834.655	0.60832757	0.072902897	0.8929835	0.1070165	0.68123047
6834.66	0.62999265	0.066485501	0.90454044	0.095459563	0.69647815
6834.665	0.61434432	0.073093156	0.89367301	0.10632699	0.68743748
6834.67	0.45486578	0.18816963	0.70737283	0.29262717	0.64303541
6834.675	0.31368863	0.31167478	0.50161014	0.49838986	0.62536341
6834.68	0.37271144	0.28804963	0.56406386	0.43593614	0.66076107
6834.685	0.51636813	0.15593945	0.76805341	0.23194659	0.67230758
6834.69	0.58226932	0.068352947	0.8949422	0.1050578	0.65062227
6834.695	0.63657	0.06185812	0.91143238	0.088567624	0.69842812
6834.7	0.61221803	0.051849943	0.92192073	0.078079271	0.66406797
6834.705	0.65963722	0.049801774	0.92980119	0.070198812	0.70943899
6834.71	0.63836239	0.045248902	0.93380902	0.066190981	0.6836113
6834.715	0.6431757	0.047278241	0.93152586	0.068474142	0.69045394
6834.72	0.63358198	0.046641478	0.93143212	0.068567876	0.68022346
6834.725	0.63662687	0.053154269	0.92294039	0.077059615	0.68978114
6834.73	0.63554115	0.047296168	0.93073582	0.069264181	0.68283732
6834.735	0.63956737	0.050034046	0.92744498	0.072555022	0.68960141
6834.74	0.63802529	0.048990357	0.92869106	0.071308939	0.68701565
6834.745	0.63611556	0.050348723	0.926655	0.073345	0.68646429
6834.75	0.64526213	0.052304948	0.92501804	0.074981961	0.69756708
6834.755	0.61637498	0.052789377	0.92111149	0.078888507	0.66916436
6834.76	0.63720051	0.047324156	0.93086567	0.069134332	0.68452466
6834.765	0.64880962	0.047734568	0.93146943	0.068530567	0.69654418
6834.77	0.64662208	0.049436034	0.92897715	0.071022854	0.69605811
6834.775	0.61473464	0.048015149	0.92755162	0.07244838	0.66274979
6834.78	0.62936513	0.054480572	0.92033207	0.079667931	0.6838457
6834.785	0.6550799	0.047897306	0.93186507	0.068134934	0.7029772
6834.79	0.66634121	0.054101582	0.9249051	0.075094903	0.72044279
6834.795	0.65281503	0.050532799	0.9281539	0.0718461	0.70334783
6834.8	0.63278932	0.052765741	0.92303209	0.07696791	0.68555506
6834.805	0.64595457	0.050245149	0.9278294	0.072170596	0.69619972
6834.81	0.63757611	0.053058611	0.92317413	0.076825867	0.69063472
6834.815	0.64032525	0.054594719	0.9214374	0.078562599	0.69491997
6834.82	0.64683205	0.049792763	0.92852284	0.071477159	0.69662482
6834.825	0.6448893	0.058011735	0.91746813	0.082531866	0.70290104
6834.83	0.63996246	0.050109137	0.9273856	0.072614402	0.6900716
6834.835	0.63905663	0.054459725	0.92147305	0.078526951	0.69351635
6834.84	0.65361534	0.051114185	0.92746978	0.072530216	0.70472953
6834.845	0.65190863	0.06028456	0.91535364	0.084646358	0.71219319
6834.85	0.60973683	0.05999397	0.91042077	0.08957923	0.6697308
6834.855	0.61004947	0.059023321	0.91178341	0.088216591	0.66907279
6834.86	0.66377246	0.055350608	0.92303041	0.07696959	0.71912307
6834.865	0.61551784	0.05966461	0.91163187	0.088368129	0.67518245
6834.87	0.60720348	0.06536998	0.90280619	0.097193815	0.67257346
6834.875	0.62067626	0.062553936	0.90844384	0.091556164	0.6832302
6834.88	0.6321453	0.068379297	0.90238844	0.097611557	0.7005246
6834.885	0.60848675	0.065474835	0.90285079	0.097149209	0.67396158
6834.89	0.60901721	0.072830763	0.89318621	0.10681379	0.68184797
6834.895	0.62556456	0.064408606	0.90665056	0.093349436	0.68997317
6834.9	0.63170947	0.063340318	0.90886938	0.09113062	0.69504979
6834.905	0.6208999	0.073365368	0.8943266	0.1056734	0.69426527
6834.91	0.58900555	0.073313307	0.88930814	0.11069186	0.66231885
6834.915	0.64167557	0.071507909	0.8997342	0.1002658	0.71318348
6834.92	0.61741111	0.069519415	0.89879702	0.10120298	0.68693052
6834.925	0.63540897	0.068499025	0.90268753	0.09731247	0.70390799
6834.93	0.64210397	0.067925272	0.90433454	0.095665457	0.71002924
6834.935	0.6275488	0.074012103	0.89450367	0.10549633	0.7015609
6834.94	0.62151998	0.069385835	0.89957266	0.10042734	0.69090582
6834.945	0.63738114	0.068938065	0.90239814	0.097601856	0.7063192
6834.95	0.62177857	0.066060369	0.90395954	0.096040461	0.68783894
6834.955	0.63241097	0.063777214	0.90839084	0.091609158	0.69618819
6834.96	0.61074913	0.070912028	0.89597173	0.10402827	0.68166116
6834.965	0.63943884	0.063669587	0.90944556	0.090554435	0.70310843
6834.97	0.63277982	0.062501933	0.9101056	0.089894395	0.69528176
6834.975	0.61412453	0.073619447	0.89295516	0.10704484	0.68774398
6834.98	0.62345236	0.061661642	0.90999798	0.090002016	0.68511401
6834.985	0.61479074	0.068264037	0.90006067	0.099939331	0.68305477
6834.99	0.64628369	0.065501261	0.90797605	0.092023947	0.71178495
6834.995	0.62890181	0.068291804	0.90204758	0.097952423	0.69719361
6835	0.64207701	0.058258141	0.91681391	0.083186086	0.70033515
6835.005	0.61209091	0.058153928	0.9132348	0.086765201	0.67024484
6835.01	0.63439078	0.059837055	0.91380776	0.086192244	0.69422783
6835.015	0.62083235	0.055294381	0.91821891	0.08178109	0.67612673
6835.02	0.63001337	0.05415924	0.9208398	0.079160199	0.68417261
6835.025	0.64103274	0.047863398	0.93052161	0.069478395	0.68889614
6835.03	0.62124817	0.057503179	0.91528094	0.084719064	0.67875134
6835.035	0.64221817	0.049015031	0.92909046	0.070909543	0.6912332
6835.04	0.61375247	0.052081895	0.9217795	0.078220496	0.66583437
6835.045	0.6172473	0.050793776	0.92396609	0.076033912	0.66804107
6835.05	0.62269152	0.047575071	0.92902067	0.070979326	0.67026659
6835.055	0.63676537	0.042889882	0.93689465	0.063105349	0.67965525
6835.06	0.64467742	0.053569204	0.9232804	0.076719603	0.69824663
6835.065	0.65343032	0.04308896	0.93813673	0.06186327	0.69651928
6835.07	0.65913036	0.046572718	0.93400522	0.065994778	0.70570308
6835.075	0.6230688	0.045108893	0.93248967	0.067510325	0.66817769
6835.08	0.62453151	0.040066881	0.93971264	0.060287358	0.66459839
6835.085	0.62536156	0.045581713	0.93206324	0.06793676	0.67094328
6835.09	0.67332842	0.038030758	0.9465379	0.053462104	0.71135918
6835.095	0.63070962	0.037438739	0.94396643	0.056033572	0.66814836
6835.1	0.64252355	0.040086994	0.94127399	0.05872601	0.68261055
