#{"prms":{"sampleRate":200000,"runID":0,"groupID":"21-01-19_10-39-47","param":"PLLFreq","from":6834.1,"to":6835.1,"by":0.005},"mmexec":"","sender":"MOTMaster","cmd":"scan","id":680835187}
#{"params":{"runID":0.0,"aChn":0.0,"ElapsedTime":0.0,"PLLFreq":6834.1,"ChirpRate":0.05,"ChirpDuration":0.2,"Pulse1Power":22.0,"Pulse1Duration":30.0,"Pulse1Phase":0.0,"Pulse2Power":22.0,"Pulse2Duration":30.0,"Pulse2Phase":0.0,"Pulse3Power":22.0,"Pulse3Duration":30.0,"Pulse3Phase":0.0,"VelPulsePower":22.0,"VelPulseDuration":100.0,"VelPulsePhase":0.0,"IntTime1":10.0,"IntTime2":10.0,"test":0.0,"AnalogClockFrequncy":100000.0,"AnalogLength":0.0,"HSClockFrequency":200000000.0,"2DCoil":9.0,"AnalogClockFrequency":100000.0,"yBiasImg":9.0,"2DAtten":4.15,"YpFreqMOT":6.785,"YmFreqLaunch":6.815,"YmFreqMOT":6.828,"DetFreq":3.8,"DetAttn":0.0,"y2DBias":0.0,"ZmAttenState":9.0,"YmAttenMOT":1.78,"YmAttenImg":2.65,"x2DBias":0.0,"PushAtten":7.5,"XpFreqMOT":6.735,"3DCoil":3.1,"2DFreq":7.11,"2DPushFreq":7.1,"ZmAttenImg":10.0,"mwTime":10.0,"YBiasState":9.9,"yBiasState":9.9,"zBiasMW":9.0,"YBiasMW":9.0,"zBiasInt":9.0,"YpAttenLaunch":2.5,"XpFreqLaunch":6.741,"YpFreqLaunch":6.799,"xBiasInt":9.0,"ZmAttenMOT":3.82,"ZpAttenMOT":6.9,"xBiasMot":-2.5,"yBiasMot":-0.25,"zBiasMot":-0.5,"XBiasState":0.0,"xBiasState":-2.5,"zBiasImg":-0.5,"ZBiasState":-0.5,"YBiasInt":-0.5,"ZpFreqMOT":6.807,"ZmFreqMOT":6.833,"XmFreqLaunch":6.896,"XmFreqMOT":6.901,"XmAttenLaunch":9.0,"ZpAttenState":3.2,"ZpAttenImg":6.7,"XpAttenLaunch":4.0,"XpAttenImg":2.8,"XpAttenMOT":6.2,"YpAttenMOT":6.1,"YpAttenImg":4.0,"XmAttenMOT":3.85,"XmAttenImg":2.5,"xBiasMW":-3.5,"":0.0,"ZmFreqLaunch":6.878,"ZpFreqLaunch":6.762,"rPhase0":0.0,"rPhase":50.0,"PLLFreqX":6834.51,"PLLFreqY":6834.48,"ChirpRateX":0.65,"ChirpRateY":0.32,"MWFreq":6834.682,"xBiasImg":-2.5}}
#{"steps":{"Initialization 1":0.1,"Initialization 2":1.0,"2D3D":200.0,"3Donly":10.0,"B field off":6.0,"Launch":1.0,"Freq Ramp":0.1,"Wait":5.74,"Intensity ramp":0.2,"BSwitch0":1.0,"Step1":0.1,"Step2":0.06,"BSwitch1":2.0,"BSwitch2":1.0,"MW0":0.095,"Wait2":5.71,"VelSel":0.058,"B3":1.0,"Pulse 1":0.03,"Delay":0.1,"Dark2":0.4,"Pulse 2":0.07,"Dark 3":0.5,"Pulse 3":0.03,"Detection B field 1":3.21,"Detection field 2":2.5,"Dwell":2.0,"N2":0.3,"NTot":0.3,"BlowAway2":100.0,"DetWait":1.7,"B2":0.3,"BTot":0.3,"Bg":0.3,"Off":300.0}}


XAxis	N1	N2	RN1	RN2	NTot
6834.1	2.4324767	0.12400987	0.95149207	0.048507927	2.5564866
6834.105	2.5078438	0.11870406	0.95480605	0.045193946	2.6265479
6834.11	2.510789	0.12752617	0.95166379	0.048336215	2.6383152
6834.115	2.570026	0.12662116	0.95304497	0.046955032	2.6966472
6834.12	2.5438196	0.13192848	0.95069473	0.049305269	2.6757481
6834.125	2.6782066	0.13104572	0.9533521	0.0466479	2.8092523
6834.13	2.5524343	0.13186962	0.95087381	0.049126187	2.6843039
6834.135	2.6063282	0.1271128	0.95349715	0.046502851	2.733441
6834.14	2.7041542	0.13159838	0.95359314	0.046406864	2.8357526
6834.145	2.6718665	0.13464659	0.95202353	0.047976468	2.8065131
6834.15	2.6970817	0.13636283	0.95187383	0.048126169	2.8334446
6834.155	2.7392336	0.13109281	0.95432826	0.045671742	2.8703264
6834.16	2.6363374	0.13338503	0.95184173	0.048158266	2.7697224
6834.165	2.6068597	0.13448905	0.95094055	0.049059446	2.7413487
6834.17	2.6961193	0.1384542	0.95115519	0.048844809	2.8345735
6834.175	2.6514646	0.13332984	0.9521222	0.047877803	2.7847945
6834.18	2.7274273	0.13151822	0.95399765	0.046002354	2.8589455
6834.185	2.6639858	0.13508516	0.95173929	0.048260712	2.7990709
6834.19	2.84553	0.14003615	0.95309561	0.046904387	2.9855662
6834.195	2.8042548	0.13951608	0.95260634	0.04739366	2.9437709
6834.2	2.7596542	0.14394606	0.95042498	0.049575024	2.9036003
6834.205	2.6176028	0.13814637	0.94986976	0.05013024	2.7557492
6834.21	2.6654317	0.13909398	0.95040374	0.049596259	2.8045257
6834.215	2.6550672	0.14452267	0.9483772	0.051622801	2.7995899
6834.22	2.7181718	0.14935596	0.94791473	0.05208527	2.8675277
6834.225	2.56595	0.14728602	0.94571574	0.054284263	2.713236
6834.23	2.6199537	0.13965788	0.9493922	0.050607802	2.7596116
6834.235	2.6295963	0.15078726	0.94576746	0.054232539	2.7803836
6834.24	2.6453259	0.15054753	0.94615367	0.053846332	2.7958734
6834.245	2.6634873	0.1467473	0.94778112	0.05221888	2.8102346
6834.25	2.6824794	0.14863562	0.94749927	0.052500735	2.831115
6834.255	2.7328589	0.14548016	0.94945691	0.050543094	2.8783391
6834.26	2.8307105	0.14087508	0.95259262	0.04740738	2.9715855
6834.265	2.6482019	0.14975374	0.94647744	0.053522556	2.7979556
6834.27	2.7323701	0.15277408	0.94704803	0.052951974	2.8851442
6834.275	2.6425172	0.15924437	0.94316277	0.056837231	2.8017616
6834.28	2.7682807	0.14497642	0.95023563	0.049764373	2.9132571
6834.285	2.7667321	0.14799288	0.94922578	0.050774218	2.9147249
6834.29	2.7532779	0.15261342	0.94748138	0.052518624	2.9058914
6834.295	2.7846329	0.1586456	0.94609902	0.053900984	2.9432785
6834.3	2.6332431	0.1669496	0.94037925	0.059620755	2.8001927
6834.305	2.7570901	0.16485755	0.94357957	0.056420434	2.9219476
6834.31	2.7311768	0.16359173	0.94348711	0.056512888	2.8947686
6834.315	2.7202434	0.16374082	0.94322409	0.056775908	2.8839842
6834.32	2.8023806	0.17027179	0.94272059	0.057279415	2.9726523
6834.325	2.7032722	0.1733558	0.93973645	0.060263545	2.876628
6834.33	2.6668701	0.17640248	0.93795794	0.062042056	2.8432726
6834.335	2.7535665	0.17274552	0.94096818	0.059031818	2.926312
6834.34	2.7637874	0.16912102	0.94233675	0.057663246	2.9329084
6834.345	2.6625818	0.18116574	0.93629331	0.063706688	2.8437475
6834.35	2.796595	0.17986812	0.93956985	0.060430154	2.9764631
6834.355	2.6683918	0.18958015	0.9336662	0.066333805	2.8579719
6834.36	2.6941595	0.18644336	0.93527627	0.064723729	2.8806028
6834.365	2.6909886	0.1920458	0.93338762	0.066612384	2.8830344
6834.37	2.7417981	0.20261653	0.93118614	0.068813858	2.9444146
6834.375	2.6776133	0.20874532	0.92767866	0.072321337	2.8863587
6834.38	2.6173495	0.20337266	0.9279005	0.072099502	2.8207221
6834.385	2.6194288	0.19492263	0.93073977	0.06926023	2.8143514
6834.39	2.7102772	0.20264978	0.93043088	0.069569124	2.912927
6834.395	2.6943282	0.21445156	0.92627439	0.073725608	2.9087798
6834.4	2.6902116	0.21557428	0.92581206	0.074187942	2.9057859
6834.405	2.5949527	0.21572593	0.92324774	0.076752258	2.8106786
6834.41	2.7070706	0.21249706	0.92721626	0.072783743	2.9195677
6834.415	2.6945981	0.22865734	0.9217799	0.078220104	2.9232554
6834.42	2.6987251	0.23225159	0.92075966	0.07924034	2.9309767
6834.425	2.5709566	0.24071167	0.91438831	0.08561169	2.8116683
6834.43	2.7082632	0.24176588	0.91804627	0.081953726	2.9500291
6834.435	2.6205291	0.248493	0.91338756	0.086612438	2.8690221
6834.44	2.7635439	0.23362496	0.92205145	0.077948548	2.9971689
6834.445	2.5529188	0.26594786	0.90565433	0.09434567	2.8188666
6834.45	2.6614286	0.24829411	0.91466743	0.085332566	2.9097227
6834.455	2.7111511	0.25168599	0.91505237	0.084947632	2.9628371
6834.46	2.5221394	0.25411084	0.90846976	0.091530235	2.7762502
6834.465	2.6388689	0.25246722	0.91268147	0.087318528	2.8913361
6834.47	2.6501724	0.26244853	0.90989266	0.090107343	2.912621
6834.475	2.7554664	0.25475416	0.91537027	0.084629731	3.0102206
6834.48	2.4601321	0.26131532	0.90397929	0.096020711	2.7214474
6834.485	2.6792243	0.24074182	0.91755322	0.082446785	2.9199661
6834.49	2.7059745	0.24807637	0.91602163	0.083978366	2.9540509
6834.495	2.6710153	0.25578957	0.9126045	0.0873955	2.9268049
6834.5	2.7421545	0.26481986	0.91193145	0.088068546	3.0069744
6834.505	2.465828	0.25568368	0.90605086	0.09394914	2.7215117
6834.51	2.6493853	0.25541707	0.91207076	0.087929241	2.9048024
6834.515	2.7072191	0.24913785	0.91572809	0.084271911	2.9563569
6834.52	2.6065185	0.26088673	0.90901644	0.090983561	2.8674052
6834.525	2.751268	0.25003949	0.91668981	0.083310187	3.0013075
6834.53	2.63947	0.25043593	0.91334115	0.086658852	2.889906
6834.535	2.6545404	0.24534563	0.91539473	0.084605268	2.899886
6834.54	2.6071254	0.23641102	0.91686021	0.083139789	2.8435364
6834.545	2.6995209	0.24329192	0.91732674	0.082673257	2.9428128
6834.55	2.7921945	0.23568178	0.92216268	0.077837322	3.0278763
6834.555	2.5406478	0.23927854	0.9139263	0.086073695	2.7799264
6834.56	2.5736509	0.24299745	0.91372815	0.086271846	2.8166483
6834.565	2.7251002	0.22375374	0.9241218	0.075878203	2.948854
6834.57	2.6860667	0.2431115	0.91700351	0.082996487	2.9291782
6834.575	2.8205233	0.22797303	0.92521788	0.074782122	3.0484963
6834.58	2.6311108	0.22764157	0.92037031	0.079629694	2.8587523
6834.585	2.6675623	0.22733679	0.92146987	0.078530125	2.8948991
6834.59	2.7145602	0.22009154	0.9250025	0.074997499	2.9346517
6834.595	2.6566319	0.21398315	0.92545739	0.074542613	2.8706151
6834.6	2.698425	0.23157913	0.92096287	0.079037134	2.9300041
6834.605	2.6106987	0.21780812	0.92299537	0.07700463	2.8285068
6834.61	2.7289191	0.2187518	0.92578826	0.074211744	2.9476709
6834.615	2.6987205	0.22009516	0.92459436	0.075405639	2.9188157
6834.62	2.7664374	0.20345697	0.93149353	0.068506466	2.9698944
6834.625	2.6596149	0.21719469	0.92450154	0.075498459	2.8768096
6834.63	2.708655	0.23016277	0.92168185	0.078318149	2.9388178
6834.635	2.6643138	0.22841233	0.92103908	0.078960924	2.8927262
6834.64	2.7899271	0.21289134	0.92910283	0.070897174	3.0028184
6834.645	2.6740693	0.23399441	0.91953601	0.080463992	2.9080637
6834.65	2.6341293	0.2410469	0.91616274	0.083837262	2.8751762
6834.655	2.7047638	0.28236663	0.90547228	0.094527721	2.9871304
6834.66	2.6293805	0.31829435	0.8920185	0.1079815	2.9476749
6834.665	2.5300052	0.42055974	0.85746467	0.14253533	2.950565
6834.67	2.2563542	0.66116183	0.77338194	0.22661806	2.917516
6834.675	2.1094111	0.87714091	0.70630315	0.29369685	2.986552
6834.68	2.2744139	0.80979694	0.73743788	0.26256212	3.0842108
6834.685	2.4808168	0.5687251	0.81350474	0.18649526	3.0495419
6834.69	2.6563585	0.35612345	0.88178404	0.11821596	3.012482
6834.695	2.5427986	0.28374594	0.89961384	0.10038616	2.8265445
6834.7	2.8734947	0.24879984	0.92031507	0.079684934	3.1222945
6834.705	2.7005645	0.23132166	0.92110142	0.078898581	2.9318861
6834.71	2.7723876	0.21902201	0.92678301	0.073216992	2.9914096
6834.715	2.7877526	0.20762166	0.9306859	0.069314096	2.9953742
6834.72	2.8132816	0.21064473	0.93034065	0.069659346	3.0239263
6834.725	2.7926352	0.21017533	0.93000713	0.069992869	3.0028105
6834.73	2.7129933	0.20445648	0.92991945	0.070080549	2.9174497
6834.735	2.7545237	0.19233782	0.9347313	0.0652687	2.9468615
6834.74	2.8354329	0.19209111	0.93655175	0.063448253	3.027524
6834.745	2.7082986	0.18866365	0.93487535	0.065124649	2.8969623
6834.75	2.7933312	0.20499344	0.93163067	0.068369328	2.9983246
6834.755	2.7073145	0.20366602	0.93003525	0.06996475	2.9109805
6834.76	2.6896847	0.2108981	0.92729113	0.072708871	2.9005828
6834.765	2.6948749	0.19752902	0.93170767	0.068292335	2.8924039
6834.77	2.6856124	0.20261152	0.9298491	0.070150902	2.888224
6834.775	2.7518628	0.21315021	0.92811154	0.071888455	2.965013
6834.78	2.7651723	0.21487876	0.92789427	0.072105732	2.980051
6834.785	2.7084333	0.22195499	0.92425748	0.07574252	2.9303883
6834.79	2.7734846	0.21425779	0.92828773	0.07171227	2.9877424
6834.795	2.6577329	0.23129689	0.9199396	0.080060404	2.8890298
6834.8	2.6745612	0.22543453	0.92226384	0.077736159	2.8999957
6834.805	2.7818855	0.2196213	0.92682965	0.07317035	3.0015068
6834.81	2.6235476	0.23262723	0.91855287	0.081447126	2.8561748
6834.815	2.6597076	0.22942505	0.92059034	0.079409662	2.8891327
6834.82	2.6687445	0.24181364	0.91691846	0.083081536	2.9105581
6834.825	2.6642024	0.24017711	0.91730519	0.082694808	2.9043795
6834.83	2.709449	0.23566847	0.91997994	0.080020059	2.9451175
6834.835	2.66647	0.24415072	0.9161173	0.083882698	2.9106208
6834.84	2.6746133	0.23933473	0.91786582	0.082134177	2.9139481
6834.845	2.63362	0.24729413	0.91416123	0.085838771	2.8809141
6834.85	2.7225607	0.24228408	0.91828102	0.081718978	2.9648448
6834.855	2.6412985	0.25045267	0.91339066	0.086609345	2.8917512
6834.86	2.6823005	0.2470445	0.91566562	0.084334383	2.929345
6834.865	2.6799684	0.24928579	0.91489786	0.085102137	2.9292542
6834.87	2.5737167	0.2541038	0.91014147	0.089858534	2.8278205
6834.875	2.768142	0.2528676	0.91629699	0.08370301	3.0210096
6834.88	2.6702406	0.25983379	0.91132178	0.088678224	2.9300744
6834.885	2.6534051	0.25544845	0.91218243	0.08781757	2.9088535
6834.89	2.59197	0.2587898	0.90922076	0.090779237	2.8507598
6834.895	2.7644284	0.25552324	0.9153883	0.084611699	3.0199516
6834.9	2.7030505	0.26014065	0.91220929	0.087790707	2.9631912
6834.905	2.6546225	0.2541042	0.91264074	0.087359257	2.9087267
6834.91	2.6027662	0.26146181	0.90871474	0.091285262	2.864228
6834.915	2.6752993	0.26423243	0.91011071	0.089889292	2.9395317
6834.92	2.7508882	0.24747587	0.91746303	0.082536965	2.998364
6834.925	2.730155	0.24192419	0.91860103	0.081398971	2.9720792
6834.93	2.6208687	0.25674507	0.91077848	0.089221517	2.8776138
6834.935	2.608292	0.24923665	0.91277895	0.087221051	2.8575286
6834.94	2.7363897	0.25514885	0.91470982	0.085290177	2.9915385
6834.945	2.6948043	0.25302491	0.91416568	0.085834318	2.9478292
6834.95	2.8982584	0.22441248	0.92813444	0.071865556	3.1226709
6834.955	2.7052142	0.22459077	0.92334276	0.076657243	2.9298049
6834.96	2.6480176	0.22994672	0.92010091	0.079899089	2.8779643
6834.965	2.6011192	0.24396951	0.91424889	0.08575111	2.8450887
6834.97	2.7410518	0.2327056	0.92174695	0.078253055	2.9737574
6834.975	2.706687	0.22289109	0.923917	0.076083001	2.9295781
6834.98	2.8673529	0.21595315	0.92996052	0.07003948	3.083306
6834.985	2.7752741	0.21177277	0.92910297	0.070897035	2.9870469
6834.99	2.7848386	0.21707137	0.92768891	0.072311086	3.0019099
6834.995	2.7707897	0.21203261	0.92891544	0.071084562	2.9828223
6835	2.6909162	0.20707621	0.92854494	0.071455058	2.8979924
6835.005	2.7563424	0.19670151	0.93339025	0.066609747	2.9530439
6835.01	2.7884218	0.19781333	0.93375829	0.066241713	2.9862351
6835.015	2.8905821	0.19005408	0.93830687	0.061693127	3.0806362
6835.02	2.7823478	0.19067753	0.93586414	0.064135859	2.9730253
6835.025	2.761184	0.19057845	0.93543571	0.064564291	2.9517624
6835.03	2.6807204	0.19401947	0.93250886	0.067491142	2.8747398
6835.035	2.7828697	0.18873605	0.93648685	0.063513153	2.9716057
6835.04	2.8787299	0.17881899	0.94151557	0.058484425	3.0575488
6835.045	2.768682	0.18531757	0.93726554	0.062734459	2.9539996
6835.05	2.7894313	0.17238236	0.94179838	0.058201624	2.9618136
6835.055	2.847104	0.17080662	0.94340236	0.056597639	3.0179106
6835.06	2.8385663	0.16630062	0.94465624	0.055343756	3.0048669
6835.065	2.6662041	0.17575324	0.93815768	0.061842319	2.8419574
6835.07	2.8011849	0.16683264	0.94378987	0.056210128	2.9680175
6835.075	2.8478728	0.16191622	0.94620346	0.053796535	3.009789
6835.08	2.6859102	0.16383831	0.9425078	0.057492199	2.8497485
6835.085	2.8940698	0.15993698	0.94763044	0.052369556	3.0540068
6835.09	2.9108645	0.16004721	0.94788284	0.052117163	3.0709118
6835.095	2.8556604	0.15381076	0.9488911	0.051108898	3.0094712
6835.1	2.8415427	0.1511946	0.94947949	0.050520506	2.9927373
