#{"prms":{"sampleRate":200000,"runID":0,"groupID":"21-01-19_11-59-49","param":"mwTime","from":1.0,"to":150.0,"by":1.0},"mmexec":"","sender":"MOTMaster","cmd":"scan","id":725299946}
#{"params":{"runID":0.0,"aChn":0.0,"ElapsedTime":0.0,"PLLFreq":6834.51,"ChirpRate":0.05,"ChirpDuration":0.2,"Pulse1Power":22.0,"Pulse1Duration":30.0,"Pulse1Phase":0.0,"Pulse2Power":22.0,"Pulse2Duration":30.0,"Pulse2Phase":0.0,"Pulse3Power":22.0,"Pulse3Duration":30.0,"Pulse3Phase":0.0,"VelPulsePower":22.0,"VelPulseDuration":100.0,"VelPulsePhase":0.0,"IntTime1":10.0,"IntTime2":10.0,"test":0.0,"AnalogClockFrequncy":100000.0,"AnalogLength":0.0,"HSClockFrequency":200000000.0,"2DCoil":9.0,"AnalogClockFrequency":100000.0,"yBiasImg":9.0,"2DAtten":4.15,"YpFreqMOT":6.785,"YmFreqLaunch":6.815,"YmFreqMOT":6.828,"DetFreq":3.8,"DetAttn":0.0,"y2DBias":0.0,"ZmAttenState":9.0,"YmAttenMOT":1.78,"YmAttenImg":2.65,"x2DBias":0.0,"PushAtten":7.5,"XpFreqMOT":6.735,"3DCoil":3.1,"2DFreq":7.11,"2DPushFreq":7.1,"ZmAttenImg":10.0,"mwTime":1.0,"YBiasState":9.9,"yBiasState":9.9,"zBiasMW":9.0,"YBiasMW":9.0,"zBiasInt":9.0,"YpAttenLaunch":2.5,"XpFreqLaunch":6.741,"YpFreqLaunch":6.799,"xBiasInt":9.0,"ZmAttenMOT":3.82,"ZpAttenMOT":6.9,"xBiasMot":-2.5,"yBiasMot":-0.25,"zBiasMot":-0.5,"XBiasState":0.0,"xBiasState":-2.5,"zBiasImg":-0.5,"ZBiasState":-0.5,"YBiasInt":-0.5,"ZpFreqMOT":6.807,"ZmFreqMOT":6.833,"XmFreqLaunch":6.896,"XmFreqMOT":6.901,"XmAttenLaunch":9.0,"ZpAttenState":3.2,"ZpAttenImg":6.7,"XpAttenLaunch":4.0,"XpAttenImg":2.8,"XpAttenMOT":6.2,"YpAttenMOT":6.1,"YpAttenImg":4.0,"XmAttenMOT":3.85,"XmAttenImg":2.5,"xBiasMW":-3.5,"":0.0,"ZmFreqLaunch":6.878,"ZpFreqLaunch":6.762,"rPhase0":0.0,"rPhase":50.0,"PLLFreqX":6834.51,"PLLFreqY":6834.48,"ChirpRateX":0.65,"ChirpRateY":0.32,"MWFreq":6834.682,"xBiasImg":-2.5}}
#{"steps":{"Initialization 1":0.1,"Initialization 2":1.0,"2D3D":100.0,"3Donly":10.0,"B field off":6.0,"Launch":1.0,"Freq Ramp":0.1,"Wait":5.74,"Intensity ramp":0.2,"BSwitch0":1.0,"Step1":0.1,"Step2":0.06,"BSwitch1":2.0,"BSwitch2":1.0,"MW0":0.095,"Wait2":5.71,"VelSel":0.058,"B3":1.0,"Pulse 1":0.03,"Delay":0.1,"Dark2":0.4,"Pulse 2":0.001,"Dark 3":0.5,"Pulse 3":0.03,"Detection B field 1":3.21,"Detection field 2":2.5,"Dwell":2.0,"N2":0.3,"NTot":0.3,"BlowAway2":100.0,"DetWait":1.7,"B2":0.3,"BTot":0.3,"Bg":0.3,"Off":300.0}}


XAxis	N1	N2	RN1	RN2	NTot
1	1.355403	0.05023401	0.96426246	0.03573754	1.405637
2	1.4234519	0.050731728	0.96558656	0.03441344	1.4741836
3	1.4140021	0.053877867	0.96329546	0.036704544	1.46788
4	1.373277	0.05279443	0.96297911	0.037020887	1.4260714
5	1.3798762	0.048039917	0.96635662	0.033643375	1.4279161
6	1.3112842	0.058106636	0.95756753	0.042432469	1.3693909
7	1.3864707	0.058669758	0.95940204	0.040597962	1.4451405
8	1.4057184	0.060311588	0.9588606	0.041139396	1.46603
9	1.4433873	0.054079926	0.96388574	0.036114263	1.4974673
10	1.412541	0.060685563	0.95880772	0.041192281	1.4732266
11	1.35962	0.065636124	0.95394784	0.046052161	1.4252561
12	1.3781328	0.067142206	0.95354365	0.046456354	1.445275
13	1.3847773	0.061633143	0.9573889	0.042611101	1.4464105
14	1.3722651	0.063890927	0.95551255	0.044487454	1.4361561
15	1.3538848	0.069257005	0.95133514	0.048664865	1.4231418
16	1.4016675	0.069128891	0.95299901	0.047000993	1.4707964
17	1.3634156	0.072597022	0.94944541	0.050554586	1.4360126
18	1.3727512	0.074939211	0.94823534	0.051764664	1.4476905
19	1.4610468	0.074241529	0.95164326	0.048356735	1.5352883
20	1.399968	0.07206598	0.95104326	0.048956737	1.472034
21	1.4176498	0.069476178	0.95328158	0.046718421	1.487126
22	1.3677806	0.075608528	0.94761737	0.052382635	1.4433892
23	1.3564598	0.080315955	0.94409987	0.055900131	1.4367758
24	1.4180905	0.079919644	0.94664946	0.053350536	1.4980102
25	1.4028056	0.079870147	0.94613108	0.053868923	1.4826758
26	1.3918498	0.086058817	0.94176987	0.058230134	1.4779086
27	1.3829927	0.079762936	0.94547077	0.05452923	1.4627556
28	1.4550956	0.077404386	0.94949143	0.050508571	1.5325
29	1.4716133	0.078850303	0.94914405	0.050855953	1.5504636
30	1.4390543	0.080700373	0.94689908	0.053100922	1.5197546
31	1.3830171	0.089672648	0.93910961	0.060890386	1.4726897
32	1.4064132	0.090164239	0.93975304	0.06024696	1.4965774
33	1.4007235	0.084320293	0.94322033	0.056779666	1.4850438
34	1.4136183	0.090748699	0.93967649	0.060323511	1.504367
35	1.4341778	0.084162362	0.94456949	0.055430506	1.5183401
36	1.3988149	0.086644088	0.94167184	0.058328159	1.485459
37	1.3928976	0.087818263	0.94069202	0.059307977	1.4807159
38	1.417441	0.090025571	0.94028022	0.059719779	1.5074666
39	1.3315439	0.095020895	0.93339181	0.066608187	1.4265648
40	1.42889	0.091914413	0.93956198	0.060438022	1.5208045
41	1.3444877	0.092485508	0.93563867	0.064361332	1.4369732
42	1.3907537	0.089094315	0.93979496	0.060205043	1.4798481
43	1.4299038	0.091530617	0.93983926	0.060160737	1.5214344
44	1.3380732	0.096232807	0.93290636	0.067093637	1.434306
45	1.3661302	0.092223435	0.93676195	0.063238047	1.4583536
46	1.3202248	0.093740543	0.93370379	0.066296211	1.4139653
47	1.4223361	0.099001294	0.93492483	0.065075171	1.5213374
48	1.348657	0.093416063	0.93522099	0.064779009	1.442073
49	1.3231111	0.097725846	0.93121952	0.068780477	1.420837
50	1.3896196	0.099087073	0.93344084	0.066559164	1.4887067
51	1.3390832	0.10272875	0.92875024	0.071249756	1.4418119
52	1.3442132	0.1000545	0.93072302	0.069276976	1.4442677
53	1.3789152	0.093530401	0.93647956	0.063520445	1.4724456
54	1.3814783	0.10377315	0.93013092	0.069869081	1.4852514
55	1.4144274	0.10611536	0.93021218	0.069787817	1.5205427
56	1.421628	0.095168856	0.93725669	0.06274331	1.5167969
57	1.4165896	0.1031099	0.93215113	0.067848875	1.5196995
58	1.4529677	0.098870861	0.93628792	0.063712077	1.5518386
59	1.3783568	0.097312419	0.9340554	0.065944603	1.4756692
60	1.3049335	0.099554767	0.9291167	0.070883302	1.4044883
61	1.3952833	0.10120404	0.93237227	0.067627728	1.4964874
62	1.3664754	0.098423677	0.93281197	0.067188027	1.464899
63	1.3654052	0.10413412	0.92913825	0.070861747	1.4695393
64	1.394113	0.097264374	0.93478218	0.065217816	1.4913773
65	1.3896376	0.097650883	0.93434301	0.065656991	1.4872884
66	1.4648802	0.098567623	0.93695496	0.063045036	1.5634478
67	1.3886162	0.098068569	0.9340354	0.065964602	1.4866848
68	1.3748186	0.10122504	0.93142138	0.06857862	1.4760437
69	1.436899	0.095149574	0.93789389	0.062106107	1.5320486
70	1.3506471	0.10754833	0.9262456	0.073754396	1.4581955
71	1.3410019	0.10065065	0.93018384	0.069816159	1.4416526
72	1.4040354	0.10099599	0.93289443	0.067105572	1.5050314
73	1.4097802	0.096447604	0.93596745	0.064032546	1.5062278
74	1.343805	0.095984551	0.93333432	0.06666568	1.4397896
75	1.3557674	0.10189219	0.93009878	0.069901224	1.4576596
76	1.4257998	0.095902219	0.93697701	0.063022993	1.5217021
77	1.4018898	0.097146871	0.9351938	0.0648062	1.4990367
78	1.3400491	0.098887976	0.93127707	0.06872293	1.4389371
79	1.3591232	0.10239744	0.92993774	0.070062264	1.4615206
80	1.4084939	0.10051316	0.93339119	0.066608807	1.5090071
81	1.3592337	0.092037985	0.93658115	0.063418852	1.4512717
82	1.3711992	0.094640379	0.93543606	0.06456394	1.4658396
83	1.3573537	0.10241684	0.92984045	0.070159548	1.4597705
84	1.446897	0.095017444	0.93837697	0.061623033	1.5419144
85	1.4119186	0.10025737	0.93369993	0.066300066	1.512176
86	1.4010901	0.10378842	0.93103203	0.068967969	1.5048785
87	1.3399314	0.10270782	0.92880561	0.071194394	1.4426392
88	1.4429112	0.10319648	0.93325402	0.066745982	1.5461077
89	1.3588906	0.10002413	0.93143936	0.068560645	1.4589147
90	1.4008577	0.098465522	0.93432669	0.065673312	1.4993232
91	1.3874552	0.099212379	0.93326526	0.066734744	1.4866676
92	1.3829583	0.10290964	0.93074106	0.069258939	1.4858679
93	1.4160166	0.096280549	0.9363349	0.063665099	1.5122972
94	1.422243	0.10310894	0.93240318	0.067596822	1.5253519
95	1.3358927	0.10543046	0.92685162	0.073148378	1.4413232
96	1.3903713	0.097621084	0.9343941	0.065605901	1.4879924
97	1.4461439	0.10130812	0.9345323	0.065467702	1.547452
98	1.37035	0.10135353	0.93113183	0.068868172	1.4717035
99	1.3787269	0.095922048	0.93495262	0.06504738	1.4746489
100	1.3329081	0.10727624	0.92551214	0.074487856	1.4401844
101	1.3554051	0.10144502	0.93036688	0.069633124	1.4568501
102	1.3553975	0.10453965	0.92839442	0.071605579	1.4599372
103	1.4101163	0.1008973	0.93322542	0.066774581	1.5110136
104	1.4238409	0.098897156	0.93505308	0.064946924	1.5227381
105	1.3530378	0.10401096	0.92861532	0.071384681	1.4570488
106	1.3636019	0.10172602	0.93057798	0.069422019	1.4653279
107	1.3688125	0.098988666	0.9325599	0.067440105	1.4678012
108	1.3524083	0.097501075	0.93275367	0.067246326	1.4499093
109	1.3831711	0.096878804	0.93454355	0.065456445	1.4800499
110	1.3761505	0.092895823	0.93676454	0.06323546	1.4690464
111	1.4071807	0.095464686	0.93646892	0.063531081	1.5026454
112	1.3074313	0.097552645	0.93056672	0.069433282	1.4049839
113	1.3336023	0.10136241	0.92936244	0.070637563	1.4349647
114	1.4051027	0.095432529	0.93640101	0.063598994	1.5005352
115	1.4040277	0.095005683	0.93662204	0.063377962	1.4990334
116	1.3834567	0.10189601	0.93139945	0.06860055	1.4853527
117	1.4174878	0.095418207	0.93693051	0.06306949	1.512906
118	1.3700152	0.09853973	0.93290021	0.06709979	1.468555
119	1.325713	0.10732623	0.92510587	0.074894132	1.4330392
120	1.3652742	0.10142255	0.93084968	0.069150323	1.4666967
121	1.3711501	0.098170258	0.93318662	0.066813379	1.4693204
122	1.3816026	0.097119915	0.93432175	0.065678254	1.4787225
123	1.3511808	0.10174328	0.92997344	0.070026564	1.4529241
124	1.4518917	0.094122116	0.93911949	0.060880513	1.5460139
125	1.4250843	0.09809735	0.93559708	0.064402922	1.5231817
126	1.4276274	0.097585308	0.93601856	0.063981443	1.5252127
127	1.3584281	0.097764239	0.9328631	0.067136898	1.4561924
128	1.3907326	0.10008992	0.93286262	0.067137377	1.4908225
129	1.3508096	0.099533976	0.93137214	0.068627862	1.4503435
130	1.3871861	0.097401026	0.93439184	0.065608158	1.4845871
131	1.3890118	0.095660976	0.93556764	0.064432363	1.4846728
132	1.3938932	0.096596454	0.93519147	0.064808535	1.4904897
133	1.3797011	0.10029201	0.93223481	0.067765188	1.4799931
134	1.3569289	0.10711221	0.92683798	0.073162018	1.4640411
135	1.3666237	0.094490304	0.93532996	0.064670043	1.461114
136	1.371349	0.099007365	0.93266438	0.067335623	1.4703564
137	1.4115352	0.092497739	0.93850019	0.061499807	1.504033
138	1.40933	0.10140646	0.93287615	0.067123855	1.5107365
139	1.3831567	0.10512529	0.92936467	0.070635331	1.488282
140	1.3659374	0.10210536	0.93044796	0.069552037	1.4680428
141	1.4141313	0.1019123	0.93277746	0.067222535	1.5160436
142	1.3802511	0.099610954	0.93268903	0.067310974	1.479862
143	1.3947326	0.1043424	0.93039548	0.069604519	1.499075
144	1.4141308	0.09651612	0.93610941	0.063890587	1.5106469
145	1.4085189	0.1030706	0.9318131	0.068186901	1.5115895
146	1.4169233	0.10332116	0.93203648	0.067963516	1.5202445
147	1.4239196	0.096549313	0.9365003	0.063499696	1.5204689
148	1.367632	0.10999818	0.92555771	0.074442293	1.4776301
149	1.359311	0.099964121	0.93149741	0.068502587	1.4592751
150	1.4098684	0.10412027	0.93122784	0.068772159	1.5139886
