#{"prms":{"sampleRate":200000,"runID":0,"groupID":"21-01-19_11-46-40","param":"mwTime","from":1.0,"to":100.0,"by":1.0},"mmexec":"","sender":"MOTMaster","cmd":"scan","id":984369211}
#{"params":{"runID":0.0,"aChn":0.0,"ElapsedTime":0.0,"PLLFreq":6834.51,"ChirpRate":0.05,"ChirpDuration":0.2,"Pulse1Power":22.0,"Pulse1Duration":30.0,"Pulse1Phase":0.0,"Pulse2Power":22.0,"Pulse2Duration":30.0,"Pulse2Phase":0.0,"Pulse3Power":22.0,"Pulse3Duration":30.0,"Pulse3Phase":0.0,"VelPulsePower":22.0,"VelPulseDuration":100.0,"VelPulsePhase":0.0,"IntTime1":10.0,"IntTime2":10.0,"test":0.0,"AnalogClockFrequncy":100000.0,"AnalogLength":0.0,"HSClockFrequency":200000000.0,"2DCoil":9.0,"AnalogClockFrequency":100000.0,"yBiasImg":9.0,"2DAtten":4.15,"YpFreqMOT":6.785,"YmFreqLaunch":6.815,"YmFreqMOT":6.828,"DetFreq":3.8,"DetAttn":0.0,"y2DBias":0.0,"ZmAttenState":9.0,"YmAttenMOT":1.78,"YmAttenImg":2.65,"x2DBias":0.0,"PushAtten":7.5,"XpFreqMOT":6.735,"3DCoil":3.1,"2DFreq":7.11,"2DPushFreq":7.1,"ZmAttenImg":10.0,"mwTime":1.0,"YBiasState":9.9,"yBiasState":9.9,"zBiasMW":9.0,"YBiasMW":9.0,"zBiasInt":9.0,"YpAttenLaunch":2.5,"XpFreqLaunch":6.741,"YpFreqLaunch":6.799,"xBiasInt":9.0,"ZmAttenMOT":3.82,"ZpAttenMOT":6.9,"xBiasMot":-2.5,"yBiasMot":-0.25,"zBiasMot":-0.5,"XBiasState":0.0,"xBiasState":-2.5,"zBiasImg":-0.5,"ZBiasState":-0.5,"YBiasInt":-0.5,"ZpFreqMOT":6.807,"ZmFreqMOT":6.833,"XmFreqLaunch":6.896,"XmFreqMOT":6.901,"XmAttenLaunch":9.0,"ZpAttenState":3.2,"ZpAttenImg":6.7,"XpAttenLaunch":4.0,"XpAttenImg":2.8,"XpAttenMOT":6.2,"YpAttenMOT":6.1,"YpAttenImg":4.0,"XmAttenMOT":3.85,"XmAttenImg":2.5,"xBiasMW":-3.5,"":0.0,"ZmFreqLaunch":6.878,"ZpFreqLaunch":6.762,"rPhase0":0.0,"rPhase":50.0,"PLLFreqX":6834.51,"PLLFreqY":6834.48,"ChirpRateX":0.65,"ChirpRateY":0.32,"MWFreq":6834.682,"xBiasImg":-2.5}}
#{"steps":{"Initialization 1":0.1,"Initialization 2":1.0,"2D3D":200.0,"3Donly":10.0,"B field off":6.0,"Launch":1.0,"Freq Ramp":0.1,"Wait":5.74,"Intensity ramp":0.2,"BSwitch0":1.0,"Step1":0.1,"Step2":0.06,"BSwitch1":2.0,"BSwitch2":1.0,"MW0":0.095,"Wait2":5.71,"VelSel":0.058,"B3":1.0,"Pulse 1":0.03,"Delay":0.1,"Dark2":0.4,"Pulse 2":0.001,"Dark 3":0.5,"Pulse 3":0.03,"Detection B field 1":3.21,"Detection field 2":2.5,"Dwell":2.0,"N2":0.3,"NTot":0.3,"BlowAway2":100.0,"DetWait":1.7,"B2":0.3,"BTot":0.3,"Bg":0.3,"Off":300.0}}


XAxis	N1	N2	RN1	RN2	NTot
1	2.880561	0.10263105	0.9655969	0.034403099	2.9831921
2	0.0010956151	0.002010679	0.3527081	0.6472919	0.0031062941
3	2.7345733	0.097989086	0.9654062	0.034593796	2.8325624
4	2.7934412	0.098603737	0.96590518	0.034094816	2.8920449
5	2.8781205	0.10172195	0.96586331	0.034136685	2.9798425
6	2.9266098	0.1039469	0.9657004	0.034299605	3.0305567
7	2.8659727	0.11648808	0.96094229	0.039057708	2.9824608
8	2.9724775	0.10958015	0.96444578	0.035554219	3.0820576
9	2.9896839	0.11913713	0.96167771	0.038322288	3.108821
10	2.8774692	0.12248704	0.95917039	0.040829609	2.9999563
11	2.9006463	0.11753639	0.96105723	0.038942769	3.0181827
12	2.8432503	0.12404089	0.95819726	0.041802736	2.9672912
13	2.9955307	0.12382869	0.96030317	0.039696834	3.1193594
14	2.8910075	0.12602912	0.95822751	0.041772486	3.0170366
15	2.8780259	0.13269006	0.95592741	0.044072593	3.010716
16	2.8744021	0.13522543	0.95506905	0.044930952	3.0096275
17	2.8938833	0.13904531	0.95415477	0.045845231	3.0329286
18	2.908297	0.14515729	0.95246129	0.047538714	3.0534543
19	2.9404475	0.14072959	0.95432603	0.045673971	3.0811771
20	2.8056612	0.15108664	0.94890108	0.051098925	2.9567479
21	3.0340679	0.14952646	0.95303219	0.046967812	3.1835943
22	3.0911029	0.14629477	0.954811	0.045189001	3.2373976
23	3.0171454	0.14473843	0.95422399	0.045776012	3.1618838
24	2.8922593	0.16357498	0.94647125	0.053528746	3.0558343
25	2.8812144	0.16264555	0.94656602	0.053433979	3.04386
26	3.0156097	0.15852435	0.95005745	0.049942552	3.174134
27	2.8108794	0.16229625	0.94541317	0.054586834	2.9731757
28	3.0159572	0.16111461	0.94928833	0.050711667	3.1770718
29	2.9265593	0.17220098	0.94442907	0.055570928	3.0987602
30	2.887673	0.17319651	0.94341591	0.056584087	3.0608695
31	2.9544535	0.16601269	0.94679875	0.053201247	3.1204662
32	2.9777492	0.17399535	0.94479395	0.055206045	3.1517446
33	2.9640252	0.17453927	0.94438882	0.055611179	3.1385644
34	2.9050602	0.1742769	0.94340441	0.056595588	3.0793371
35	2.9613804	0.18264364	0.94190768	0.058092316	3.144024
36	3.0856377	0.16985795	0.94782424	0.052175756	3.2554956
37	3.0564025	0.18111683	0.94405691	0.055943086	3.2375194
38	2.9116989	0.18101353	0.94147095	0.058529054	3.0927124
39	2.9245281	0.18551789	0.94034883	0.059651173	3.110046
40	3.0881454	0.18428877	0.9436845	0.056315501	3.2724342
41	2.9819264	0.18539937	0.94146501	0.058534985	3.1673258
42	3.0026276	0.1812573	0.9430704	0.056929603	3.1838849
43	2.9527113	0.19770305	0.93724538	0.062754617	3.1504144
44	2.8201333	0.19629961	0.93492326	0.065076738	3.0164329
45	2.9800147	0.18938182	0.94024672	0.059753275	3.1693965
46	2.9555626	0.18014373	0.94255083	0.05744917	3.1357063
47	2.9849322	0.18702084	0.94103922	0.058960784	3.1719531
48	2.9217937	0.18813719	0.93950438	0.060495618	3.1099309
49	2.9022865	0.19410539	0.9373124	0.062687603	3.0963919
50	2.9647548	0.19236788	0.93906861	0.060931392	3.1571227
51	2.9028134	0.1992332	0.93577363	0.064226371	3.1020466
52	2.8227115	0.19013733	0.93689118	0.063108818	3.0128489
53	2.9400616	0.20269304	0.93550466	0.064495343	3.1427546
54	2.9741237	0.19570517	0.93826002	0.061739979	3.1698288
55	2.9484164	0.19035937	0.93935235	0.06064765	3.1387757
56	2.8409958	0.19953508	0.93437492	0.06562508	3.0405308
57	2.8714286	0.19446766	0.9365707	0.063429302	3.0658962
58	2.8624409	0.19790919	0.93533119	0.064668809	3.0603501
59	2.8742263	0.19873282	0.93532852	0.064671483	3.0729591
60	2.9579262	0.19646103	0.93771816	0.062281837	3.1543873
61	2.8252914	0.19515279	0.93538937	0.064610626	3.0204442
62	2.6520155	0.19961236	0.93000056	0.06999944	2.8516279
63	2.9229311	0.19727935	0.9367737	0.063226296	3.1202104
64	2.915234	0.19607831	0.9369789	0.063021096	3.1113123
65	2.8574984	0.20811006	0.9321146	0.067885401	3.0656085
66	3.0812148	0.19332747	0.94096046	0.059039539	3.2745423
67	3.0219172	0.19819134	0.93845197	0.061548031	3.2201085
68	2.8265786	0.19569388	0.93524943	0.064750574	3.0222725
69	2.8930357	0.21647647	0.9303825	0.0696175	3.1095122
70	2.9163835	0.20891258	0.93315431	0.066845691	3.1252961
71	2.9664177	0.20421648	0.93559128	0.064408717	3.1706341
72	3.0034961	0.20394623	0.93641469	0.063585313	3.2074423
73	2.9116351	0.21237396	0.93201877	0.067981225	3.1240091
74	2.8578683	0.2140936	0.93030721	0.069692791	3.0719619
75	2.946927	0.20862512	0.93388633	0.066113665	3.1555522
76	2.9957552	0.19901339	0.93770648	0.062293521	3.1947686
77	2.8989075	0.21258882	0.93167634	0.06832366	3.1114964
78	2.8377961	0.21463899	0.9296827	0.070317297	3.0524351
79	2.9386857	0.21519169	0.93176917	0.068230834	3.1538774
80	2.9710903	0.20680136	0.93492498	0.065075019	3.1778917
81	2.9217212	0.20772838	0.93362143	0.066378565	3.1294496
82	2.990724	0.21080199	0.93415578	0.065844222	3.201526
83	2.8289405	0.21499524	0.92936932	0.070630678	3.0439357
84	2.9898662	0.2066635	0.93534754	0.064652459	3.1965297
85	2.8526194	0.21629853	0.92951961	0.070480391	3.0689179
86	3.0442518	0.20092752	0.93808431	0.061915692	3.2451793
87	2.9597353	0.2132681	0.93278668	0.067213323	3.1730034
88	2.9784073	0.21160583	0.93366616	0.06633384	3.1900132
89	2.9280236	0.1937546	0.93793454	0.062065459	3.1217782
90	2.9986721	0.212593	0.93379774	0.066202258	3.2112651
91	2.9711945	0.20775601	0.93464635	0.065353646	3.1789505
92	2.8343774	0.2032097	0.93310161	0.066898393	3.0375871
93	2.8968157	0.20513563	0.93386884	0.066131157	3.1019514
94	2.8755975	0.19588636	0.93622419	0.063775806	3.0714838
95	2.9242192	0.20116848	0.93563407	0.064365929	3.1253877
96	2.8433401	0.19925821	0.93451051	0.065489489	3.0425983
97	2.775743	0.18974364	0.93601602	0.063983981	2.9654867
98	2.6618845	0.20216117	0.92941413	0.070585875	2.8640456
99	2.7481582	0.194207	0.9339963	0.066003704	2.9423652
100	2.7348299	0.20583609	0.93000358	0.069996417	2.940666
