#{"prms":{"sampleRate":200000,"runID":0,"groupID":"21-01-19_11-02-16","param":"PLLFreq","from":6834.1,"to":6835.1,"by":0.005},"mmexec":"","sender":"MOTMaster","cmd":"scan","id":1675440566}
#{"params":{"runID":0.0,"aChn":0.0,"ElapsedTime":0.0,"PLLFreq":6834.1,"ChirpRate":0.05,"ChirpDuration":0.2,"Pulse1Power":22.0,"Pulse1Duration":30.0,"Pulse1Phase":0.0,"Pulse2Power":22.0,"Pulse2Duration":30.0,"Pulse2Phase":0.0,"Pulse3Power":22.0,"Pulse3Duration":30.0,"Pulse3Phase":0.0,"VelPulsePower":22.0,"VelPulseDuration":100.0,"VelPulsePhase":0.0,"IntTime1":10.0,"IntTime2":10.0,"test":0.0,"AnalogClockFrequncy":100000.0,"AnalogLength":0.0,"HSClockFrequency":200000000.0,"2DCoil":9.0,"AnalogClockFrequency":100000.0,"yBiasImg":9.0,"2DAtten":4.15,"YpFreqMOT":6.785,"YmFreqLaunch":6.815,"YmFreqMOT":6.828,"DetFreq":3.8,"DetAttn":0.0,"y2DBias":0.0,"ZmAttenState":9.0,"YmAttenMOT":1.78,"YmAttenImg":2.65,"x2DBias":0.0,"PushAtten":7.5,"XpFreqMOT":6.735,"3DCoil":3.1,"2DFreq":7.11,"2DPushFreq":7.1,"ZmAttenImg":10.0,"mwTime":10.0,"YBiasState":9.9,"yBiasState":9.9,"zBiasMW":9.0,"YBiasMW":9.0,"zBiasInt":9.0,"YpAttenLaunch":2.5,"XpFreqLaunch":6.741,"YpFreqLaunch":6.799,"xBiasInt":9.0,"ZmAttenMOT":3.82,"ZpAttenMOT":6.9,"xBiasMot":-2.5,"yBiasMot":-0.25,"zBiasMot":-0.5,"XBiasState":0.0,"xBiasState":-2.5,"zBiasImg":-0.5,"ZBiasState":-0.5,"YBiasInt":-0.5,"ZpFreqMOT":6.807,"ZmFreqMOT":6.833,"XmFreqLaunch":6.896,"XmFreqMOT":6.901,"XmAttenLaunch":9.0,"ZpAttenState":3.2,"ZpAttenImg":6.7,"XpAttenLaunch":4.0,"XpAttenImg":2.8,"XpAttenMOT":6.2,"YpAttenMOT":6.1,"YpAttenImg":4.0,"XmAttenMOT":3.85,"XmAttenImg":2.5,"xBiasMW":-3.5,"":0.0,"ZmFreqLaunch":6.878,"ZpFreqLaunch":6.762,"rPhase0":0.0,"rPhase":50.0,"PLLFreqX":6834.51,"PLLFreqY":6834.48,"ChirpRateX":0.65,"ChirpRateY":0.32,"MWFreq":6834.682,"xBiasImg":-2.5}}
#{"steps":{"Initialization 1":0.1,"Initialization 2":1.0,"2D3D":200.0,"3Donly":10.0,"B field off":6.0,"Launch":1.0,"Freq Ramp":0.1,"Wait":5.74,"Intensity ramp":0.2,"BSwitch0":1.0,"Step1":0.1,"Step2":0.06,"BSwitch1":2.0,"BSwitch2":1.0,"MW0":0.095,"Wait2":30.71,"VelSel":0.058,"B3":1.0,"Pulse 1":0.03,"Delay":0.1,"Dark2":0.4,"Pulse 2":0.07,"Dark 3":0.5,"Pulse 3":0.03,"Detection B field 1":3.21,"Detection field 2":2.5,"Dwell":2.0,"N2":0.3,"NTot":0.3,"BlowAway2":100.0,"DetWait":1.7,"B2":0.3,"BTot":0.3,"Bg":0.3,"Off":300.0}}


XAxis	N1	N2	RN1	RN2	NTot
6834.1	2.1278947	0.10286898	0.9538862	0.046113795	2.2307636
6834.105	2.1045455	0.11253153	0.94924329	0.050756708	2.217077
6834.11	2.0694374	0.10262086	0.9527541	0.047245904	2.1720582
6834.115	2.0159181	0.11561562	0.94575942	0.054240576	2.1315337
6834.12	2.1043212	0.1099192	0.95035805	0.049641947	2.2142404
6834.125	2.1633718	0.11849822	0.94806969	0.051930311	2.28187
6834.13	2.1467838	0.1163172	0.94860273	0.051397267	2.263101
6834.135	2.2301783	0.11404255	0.95135162	0.04864838	2.3442209
6834.14	2.1220902	0.1134713	0.94924259	0.050757406	2.2355615
6834.145	2.1921934	0.11588802	0.94979032	0.050209676	2.3080814
6834.15	2.2305483	0.11665639	0.95029987	0.049700133	2.3472047
6834.155	2.1372841	0.123858	0.94522326	0.054776744	2.2611421
6834.16	2.290956	0.11700526	0.951409	0.048591003	2.4079613
6834.165	2.2619679	0.12141397	0.94905811	0.050941887	2.3833819
6834.17	2.2058512	0.12425009	0.9466761	0.053323901	2.3301013
6834.175	2.2528846	0.11968855	0.94955327	0.050446725	2.3725732
6834.18	2.2083379	0.12672228	0.94573062	0.054269383	2.3350602
6834.185	2.2951784	0.12397404	0.94875311	0.051246887	2.4191525
6834.19	2.2591491	0.12353369	0.94815353	0.051846468	2.3826828
6834.195	2.1801877	0.13477811	0.94177965	0.058220347	2.3149658
6834.2	2.2780493	0.12316032	0.94870905	0.051290949	2.4012096
6834.205	2.164953	0.12264582	0.94638666	0.053613344	2.2875989
6834.21	2.2210477	0.12235241	0.94778851	0.052211488	2.3434001
6834.215	2.2416442	0.12116042	0.94872178	0.051278222	2.3628046
6834.22	2.2564433	0.13272793	0.94444604	0.055553961	2.3891713
6834.225	2.2382838	0.13424675	0.94341622	0.056583781	2.3725306
6834.23	2.296181	0.1291866	0.94673525	0.053264751	2.4253676
6834.235	2.2582085	0.13474343	0.94369154	0.056308457	2.3929519
6834.24	2.3330446	0.12674544	0.94847307	0.051526935	2.4597901
6834.245	2.2099209	0.13707045	0.94159738	0.058402622	2.3469913
6834.25	2.3064456	0.13254229	0.94565685	0.054343149	2.4389879
6834.255	2.2486029	0.13515486	0.94330176	0.056698237	2.3837577
6834.26	2.2091306	0.13907181	0.9407752	0.059224799	2.3482024
6834.265	2.2449419	0.13052769	0.94505184	0.054948162	2.3754696
6834.27	2.2995247	0.14361722	0.94121618	0.058783823	2.4431419
6834.275	2.2015009	0.14603513	0.93779217	0.062207831	2.3475361
6834.28	2.2516586	0.14000529	0.94146113	0.058538866	2.3916639
6834.285	2.2516987	0.14047293	0.94127807	0.058721927	2.3921716
6834.29	2.1882149	0.14189284	0.9391046	0.060895396	2.3301078
6834.295	2.2969504	0.15165308	0.93806548	0.061934517	2.4486035
6834.3	2.2301203	0.15167992	0.93631711	0.063682887	2.3818003
6834.305	2.2027045	0.1555781	0.93402907	0.06597093	2.3582826
6834.31	2.2722125	0.14768236	0.93897158	0.061028421	2.4198949
6834.315	2.2186114	0.15635072	0.93416707	0.065832933	2.3749622
6834.32	2.2874611	0.16412932	0.9330519	0.066948097	2.4515905
6834.325	2.1611891	0.16762587	0.92802096	0.071979043	2.3288149
6834.33	2.1818436	0.16990652	0.92775316	0.072246842	2.3517501
6834.335	2.1913003	0.17656763	0.92543181	0.074568192	2.3678679
6834.34	2.1814412	0.17645851	0.92516284	0.074837158	2.3578997
6834.345	2.1720684	0.19040544	0.91940421	0.080595786	2.3624738
6834.35	2.2211219	0.18862528	0.92172404	0.078275961	2.4097472
6834.355	2.221284	0.18684302	0.92241148	0.077588524	2.4081271
6834.36	2.1264774	0.1959283	0.91563563	0.084364372	2.3224057
6834.365	2.0977454	0.19495838	0.91496573	0.085034265	2.2927038
6834.37	2.2144029	0.20342103	0.91586607	0.08413393	2.4178239
6834.375	2.209739	0.20923625	0.91350211	0.086497889	2.4189752
6834.38	2.2063637	0.21583968	0.91089118	0.08910882	2.4222034
6834.385	2.1761635	0.21358109	0.91062598	0.08937402	2.3897446
6834.39	2.1475024	0.22215537	0.90625002	0.093749981	2.3696578
6834.395	2.0966954	0.21808533	0.90578575	0.094214251	2.3147807
6834.4	2.1849957	0.22524768	0.90654567	0.093454329	2.4102434
6834.405	2.0525844	0.24571567	0.89308808	0.10691192	2.2983001
6834.41	2.1704772	0.23768456	0.90130041	0.098699585	2.4081617
6834.415	2.0484337	0.24139989	0.89457754	0.10542246	2.2898336
6834.42	2.1468081	0.2359987	0.90095769	0.099042313	2.3828069
6834.425	2.1814255	0.24423711	0.89931118	0.10068882	2.4256626
6834.43	2.0775106	0.25065305	0.89233873	0.10766127	2.3281636
6834.435	2.1435835	0.2543446	0.89393152	0.10606848	2.3979281
6834.44	2.0772902	0.25597985	0.89029137	0.10970863	2.33327
6834.445	2.1032	0.25617358	0.89142305	0.10857695	2.3593736
6834.45	2.2181234	0.25795268	0.89582199	0.10417801	2.4760761
6834.455	2.1660246	0.26178265	0.89217322	0.10782678	2.4278073
6834.46	2.1239962	0.26178167	0.89027408	0.10972592	2.3857779
6834.465	2.038802	0.25711744	0.88801113	0.11198887	2.2959195
6834.47	2.069042	0.26661823	0.88584888	0.11415112	2.3356602
6834.475	2.1857151	0.25179873	0.89669854	0.10330146	2.4375138
6834.48	2.1847605	0.25520372	0.89540678	0.10459322	2.4399643
6834.485	2.1116498	0.25342672	0.89284629	0.10715371	2.3650765
6834.49	2.1245556	0.25665604	0.8922162	0.1077838	2.3812117
6834.495	2.1507048	0.24262472	0.89862461	0.10137539	2.3933295
6834.5	2.0807758	0.2423015	0.89569805	0.10430195	2.3230773
6834.505	2.1470605	0.22945308	0.90344971	0.096550292	2.3765136
6834.51	2.1581383	0.23893478	0.90032228	0.099677718	2.3970731
6834.515	2.0878931	0.25098098	0.89269154	0.10730846	2.3388741
6834.52	2.0628465	0.24233266	0.8948747	0.1051253	2.3051791
6834.525	2.222187	0.22901245	0.90657127	0.093428731	2.4511995
6834.53	2.2343708	0.2372449	0.90401222	0.095987777	2.4716157
6834.535	2.1519286	0.23217503	0.90261538	0.09738462	2.3841037
6834.54	2.1243249	0.22462568	0.9043719	0.0956281	2.3489505
6834.545	2.2389451	0.21079352	0.91395265	0.086047351	2.4497387
6834.55	2.1766942	0.215598	0.90987807	0.090121935	2.3922922
6834.555	2.1209511	0.22212433	0.90519967	0.094800333	2.3430754
6834.56	2.1663779	0.22050578	0.90761771	0.092382291	2.3868836
6834.565	2.1195419	0.20896404	0.91025832	0.089741682	2.3285059
6834.57	2.1989485	0.2113786	0.91230294	0.08769706	2.4103271
6834.575	2.1679327	0.20018012	0.91546851	0.084531495	2.3681128
6834.58	2.2313759	0.19550775	0.91944082	0.080559176	2.4268836
6834.585	2.1012591	0.20383014	0.91157386	0.088426138	2.3050892
6834.59	2.1573436	0.19983151	0.91522415	0.084775846	2.3571751
6834.595	2.1347806	0.2087187	0.91093716	0.089062839	2.3434993
6834.6	2.1253896	0.2051672	0.91196644	0.088033558	2.3305568
6834.605	2.1349761	0.21133861	0.90992743	0.090072574	2.3463147
6834.61	2.183327	0.22060473	0.9082317	0.091768303	2.4039317
6834.615	2.1139631	0.23015108	0.90181746	0.098182538	2.3441142
6834.62	2.2044516	0.20673349	0.91426063	0.08573937	2.4111851
6834.625	2.1735005	0.21443812	0.91019948	0.089800515	2.3879386
6834.63	2.192908	0.21197028	0.91185821	0.088141794	2.4048782
6834.635	2.1938721	0.20314593	0.91525056	0.084749438	2.397018
6834.64	2.1419805	0.23537773	0.9009919	0.099008104	2.3773583
6834.645	2.2563157	0.20467852	0.91683096	0.083169037	2.4609942
6834.65	2.1711935	0.19565164	0.91733653	0.082663472	2.3668451
6834.655	2.1690125	0.23479509	0.90232368	0.097676324	2.4038076
6834.66	2.1202536	0.23544713	0.90005219	0.099947812	2.3557007
6834.665	2.0116612	0.31129445	0.86599208	0.13400792	2.3229556
6834.67	1.7279193	0.63071369	0.73259354	0.26740646	2.358633
6834.675	1.3861566	0.89770839	0.60693457	0.39306543	2.283865
6834.68	1.7187635	0.69047294	0.7134059	0.2865941	2.4092364
6834.685	1.9987408	0.36680309	0.84493921	0.15506079	2.3655438
6834.69	2.0305208	0.225601	0.90000496	0.099995044	2.2561218
6834.695	2.1206571	0.22840815	0.90276637	0.097233632	2.3490652
6834.7	2.1321918	0.20680937	0.91158219	0.088417815	2.3390012
6834.705	2.0899098	0.20804905	0.90946355	0.090536455	2.2979589
6834.71	2.1710414	0.21405865	0.91025171	0.089748292	2.3851
6834.715	2.1654381	0.21074963	0.91130767	0.08869233	2.3761877
6834.72	2.1481253	0.20053792	0.91461614	0.085383856	2.3486632
6834.725	2.224543	0.19841526	0.91811033	0.081889674	2.4229583
6834.73	2.1300499	0.21215279	0.90942168	0.090578323	2.3422027
6834.735	2.1345551	0.21082436	0.91011077	0.089889234	2.3453794
6834.74	2.1970068	0.2054383	0.91448783	0.085512173	2.4024451
6834.745	2.1394956	0.19855864	0.91507526	0.084924737	2.3380543
6834.75	2.1062138	0.20390069	0.91173568	0.088264321	2.3101145
6834.755	2.2123502	0.19120432	0.92044935	0.079550646	2.4035545
6834.76	2.1373789	0.19148068	0.91777921	0.08222079	2.3288596
6834.765	2.1158955	0.18607498	0.91916709	0.080832911	2.3019705
6834.77	2.2496023	0.17914648	0.92623919	0.073760811	2.4287488
6834.775	2.2686637	0.17105657	0.92988681	0.070113188	2.4397203
6834.78	2.20795	0.18055203	0.92440784	0.075592158	2.3885021
6834.785	2.1343786	0.19079777	0.91794267	0.08205733	2.3251764
6834.79	2.1387977	0.19261084	0.91738435	0.082615653	2.3314085
6834.795	2.1972306	0.19571327	0.91821234	0.081787657	2.3929438
6834.8	2.3097317	0.19332812	0.92276328	0.077236717	2.5030598
6834.805	2.1394802	0.20479521	0.9126403	0.087359704	2.3442754
6834.81	2.2470353	0.19776589	0.91910758	0.080892422	2.4448012
6834.815	2.1057161	0.19885336	0.91371344	0.086286557	2.3045694
6834.82	2.1217381	0.21551062	0.90779303	0.092206969	2.3372487
6834.825	2.2840688	0.20604674	0.91725415	0.082745854	2.4901156
6834.83	2.248146	0.21708937	0.9119397	0.088060301	2.4652353
6834.835	2.1572643	0.23371955	0.90224963	0.097750367	2.3909838
6834.84	2.2121393	0.23188994	0.90511982	0.094880184	2.4440292
6834.845	2.1664961	0.22708173	0.90512875	0.094871254	2.3935778
6834.85	2.1699873	0.23146992	0.90361272	0.096387278	2.4014572
6834.855	2.1064198	0.23560518	0.89940108	0.10059892	2.342025
6834.86	2.1234097	0.24314285	0.89725863	0.10274137	2.3665526
6834.865	2.1846145	0.23911974	0.90134243	0.09865757	2.4237343
6834.87	2.0816829	0.24659119	0.89408842	0.10591158	2.3282741
6834.875	2.0964779	0.25016759	0.89339353	0.10660647	2.3466455
6834.88	2.1765489	0.24260485	0.89971499	0.10028501	2.4191538
6834.885	2.0824564	0.2446187	0.89488148	0.10511852	2.3270751
6834.89	2.0821871	0.25193983	0.8920625	0.1079375	2.3341269
6834.895	2.1565526	0.261458	0.89187062	0.10812938	2.4180106
6834.9	2.1944534	0.25274018	0.89672244	0.10327756	2.4471936
6834.905	2.0593836	0.26551427	0.8857953	0.1142047	2.3248979
6834.91	2.1641313	0.24664319	0.89769131	0.10230869	2.4107745
6834.915	2.1057374	0.24918114	0.89418694	0.10581306	2.3549186
6834.92	2.1083205	0.24365888	0.89640263	0.10359737	2.3519793
6834.925	2.0744465	0.25876172	0.88909617	0.11090383	2.3332082
6834.93	2.1755814	0.2605567	0.89304518	0.10695482	2.4361381
6834.935	2.0927543	0.25749343	0.89043988	0.10956012	2.3502477
6834.94	2.2029569	0.25064533	0.89784598	0.10215402	2.4536022
6834.945	2.1530659	0.24630608	0.8973456	0.1026544	2.399372
6834.95	2.1584733	0.23822068	0.90060447	0.099395532	2.396694
6834.955	2.1327634	0.23551793	0.90055323	0.09944677	2.3682813
6834.96	2.0848066	0.23321544	0.89939033	0.10060967	2.318022
6834.965	2.1418138	0.23283424	0.90195	0.098050002	2.374648
6834.97	2.2328472	0.22512422	0.90841056	0.091589438	2.4579714
6834.975	2.1448702	0.22943116	0.90336898	0.096631016	2.3743014
6834.98	2.1920958	0.22412027	0.90724328	0.092756718	2.416216
6834.985	2.1727886	0.21049935	0.91167691	0.088323087	2.383288
6834.99	2.201635	0.22256377	0.90819079	0.091809207	2.4241988
6834.995	2.1844868	0.21952859	0.90868254	0.091317463	2.4040154
6835	2.1473418	0.20896266	0.91131763	0.08868237	2.3563044
6835.005	2.2273364	0.18904994	0.92176336	0.078236636	2.4163863
6835.01	2.1121749	0.19548927	0.91528695	0.08471305	2.3076642
6835.015	2.110797	0.19816495	0.91417574	0.085824259	2.308962
6835.02	2.10831	0.18078279	0.92102426	0.078975736	2.2890928
6835.025	2.1908137	0.18336569	0.92276671	0.077233295	2.3741794
6835.03	2.2866632	0.18518295	0.92508314	0.074916857	2.4718462
6835.035	2.1627137	0.17759552	0.9241145	0.075885495	2.3403092
6835.04	2.1435238	0.17916514	0.92286305	0.077136952	2.3226889
6835.045	2.1072695	0.16938296	0.92559999	0.074400006	2.2766525
6835.05	2.170489	0.17092071	0.92700094	0.072999059	2.3414097
6835.055	2.3365339	0.16254422	0.93495833	0.065041671	2.4990781
6835.06	2.2374036	0.15785021	0.93409876	0.065901244	2.3952539
6835.065	2.2860891	0.15372375	0.93699363	0.06300637	2.4398129
6835.07	2.2775946	0.14277192	0.94101227	0.058987725	2.4203665
6835.075	2.3074155	0.1470244	0.94009859	0.059901405	2.4544399
6835.08	2.1441454	0.14613925	0.93619167	0.063808333	2.2902847
6835.085	2.174939	0.14606021	0.93707011	0.062929886	2.3209992
6835.09	2.2218405	0.15137536	0.93621509	0.06378491	2.3732159
6835.095	2.1835572	0.14045353	0.93956416	0.060435836	2.3240108
6835.1	2.3268961	0.13600098	0.94478008	0.055219918	2.4628971
