#{"prms":{"sampleRate":200000,"runID":0,"groupID":"21-01-19_11-12-48","param":"PLLFreq","from":6834.1,"to":6835.1,"by":0.005},"mmexec":"","sender":"MOTMaster","cmd":"scan","id":2088270642}
#{"params":{"runID":0.0,"aChn":0.0,"ElapsedTime":0.0,"PLLFreq":6834.1,"ChirpRate":0.05,"ChirpDuration":0.2,"Pulse1Power":22.0,"Pulse1Duration":30.0,"Pulse1Phase":0.0,"Pulse2Power":22.0,"Pulse2Duration":30.0,"Pulse2Phase":0.0,"Pulse3Power":22.0,"Pulse3Duration":30.0,"Pulse3Phase":0.0,"VelPulsePower":22.0,"VelPulseDuration":100.0,"VelPulsePhase":0.0,"IntTime1":10.0,"IntTime2":10.0,"test":0.0,"AnalogClockFrequncy":100000.0,"AnalogLength":0.0,"HSClockFrequency":200000000.0,"2DCoil":9.0,"AnalogClockFrequency":100000.0,"yBiasImg":9.0,"2DAtten":4.15,"YpFreqMOT":6.785,"YmFreqLaunch":6.815,"YmFreqMOT":6.828,"DetFreq":3.8,"DetAttn":0.0,"y2DBias":0.0,"ZmAttenState":9.0,"YmAttenMOT":1.78,"YmAttenImg":2.65,"x2DBias":0.0,"PushAtten":7.5,"XpFreqMOT":6.735,"3DCoil":3.1,"2DFreq":7.11,"2DPushFreq":7.1,"ZmAttenImg":10.0,"mwTime":10.0,"YBiasState":9.9,"yBiasState":9.9,"zBiasMW":9.0,"YBiasMW":9.0,"zBiasInt":9.0,"YpAttenLaunch":2.5,"XpFreqLaunch":6.741,"YpFreqLaunch":6.799,"xBiasInt":9.0,"ZmAttenMOT":3.82,"ZpAttenMOT":6.9,"xBiasMot":-2.5,"yBiasMot":-0.25,"zBiasMot":-0.5,"XBiasState":0.0,"xBiasState":-2.5,"zBiasImg":-0.5,"ZBiasState":-0.5,"YBiasInt":-0.5,"ZpFreqMOT":6.807,"ZmFreqMOT":6.833,"XmFreqLaunch":6.896,"XmFreqMOT":6.901,"XmAttenLaunch":9.0,"ZpAttenState":3.2,"ZpAttenImg":6.7,"XpAttenLaunch":4.0,"XpAttenImg":2.8,"XpAttenMOT":6.2,"YpAttenMOT":6.1,"YpAttenImg":4.0,"XmAttenMOT":3.85,"XmAttenImg":2.5,"xBiasMW":-3.5,"":0.0,"ZmFreqLaunch":6.878,"ZpFreqLaunch":6.762,"rPhase0":0.0,"rPhase":50.0,"PLLFreqX":6834.51,"PLLFreqY":6834.48,"ChirpRateX":0.65,"ChirpRateY":0.32,"MWFreq":6834.682,"xBiasImg":-2.5}}
#{"steps":{"Initialization 1":0.1,"Initialization 2":1.0,"2D3D":200.0,"3Donly":10.0,"B field off":6.0,"Launch":1.0,"Freq Ramp":0.1,"Wait":5.74,"Intensity ramp":0.2,"BSwitch0":1.0,"Step1":0.1,"Step2":0.06,"BSwitch1":2.0,"BSwitch2":1.0,"MW0":0.095,"Wait2":50.71,"VelSel":0.058,"B3":1.0,"Pulse 1":0.03,"Delay":0.1,"Dark2":0.4,"Pulse 2":0.07,"Dark 3":0.5,"Pulse 3":0.03,"Detection B field 1":3.21,"Detection field 2":2.5,"Dwell":2.0,"N2":0.3,"NTot":0.3,"BlowAway2":100.0,"DetWait":1.7,"B2":0.3,"BTot":0.3,"Bg":0.3,"Off":300.0}}


XAxis	N1	N2	RN1	RN2	NTot
6834.1	1.1904874	0.069850076	0.94457828	0.055421724	1.2603375
6834.105	1.2924363	0.06252538	0.9538545	0.046145497	1.3549617
6834.11	1.2615074	0.071504799	0.94635848	0.05364152	1.3330122
6834.115	1.2915606	0.06891049	0.94934807	0.050651934	1.3604711
6834.12	1.2188028	0.066440053	0.94830545	0.051694552	1.2852428
6834.125	1.2927597	0.069140048	0.94923265	0.050767354	1.3618998
6834.13	1.3101276	0.068657541	0.95020432	0.049795677	1.3787852
6834.135	1.2754923	0.06580561	0.95093885	0.049061145	1.3412979
6834.14	1.2650908	0.073698744	0.94495121	0.055048789	1.3387896
6834.145	1.3084234	0.073277099	0.94696601	0.053033994	1.3817005
6834.15	1.3108414	0.071983064	0.9479449	0.052055099	1.3828245
6834.155	1.3125755	0.075344398	0.94571416	0.054285842	1.3879199
6834.16	1.3455526	0.065375409	0.95366496	0.046335041	1.410928
6834.165	1.319884	0.069293703	0.95011891	0.049881093	1.3891777
6834.17	1.3123535	0.075030684	0.94591932	0.054080683	1.3873842
6834.175	1.3562776	0.068495197	0.95192553	0.04807447	1.4247728
6834.18	1.3753109	0.073683044	0.94914882	0.050851175	1.4489939
6834.185	1.2808514	0.075011797	0.94467599	0.055324014	1.3558632
6834.19	1.3530928	0.070164246	0.95070163	0.049298367	1.423257
6834.195	1.3081582	0.073395789	0.94687447	0.05312553	1.381554
6834.2	1.3101031	0.069358259	0.94972077	0.050279232	1.3794614
6834.205	1.2446577	0.072060685	0.94527252	0.054727483	1.3167184
6834.21	1.3249954	0.076220183	0.94560424	0.054395756	1.4012156
6834.215	1.3639421	0.072570087	0.94948175	0.050518253	1.4365122
6834.22	1.3016951	0.078253746	0.94329228	0.056707717	1.3799488
6834.225	1.2575342	0.079012497	0.9408831	0.059116899	1.3365467
6834.23	1.3234529	0.07430418	0.94684042	0.053159578	1.3977571
6834.235	1.3246652	0.074793474	0.94655542	0.053444576	1.3994586
6834.24	1.3128551	0.079609697	0.94282822	0.057171783	1.3924648
6834.245	1.3395966	0.07863705	0.94455283	0.055447173	1.4182337
6834.25	1.2709495	0.086954335	0.93596429	0.064035707	1.3579039
6834.255	1.3446151	0.078701098	0.94470582	0.055294175	1.4233162
6834.26	1.408246	0.076645389	0.94838317	0.051616832	1.4848914
6834.265	1.3456375	0.085249042	0.94042222	0.05957778	1.4308865
6834.27	1.3033968	0.083010953	0.94012515	0.059874849	1.3864077
6834.275	1.3733785	0.081301456	0.94411042	0.055889584	1.4546799
6834.28	1.2749823	0.091028714	0.93336165	0.066638345	1.366011
6834.285	1.2820235	0.094044894	0.93165682	0.068343182	1.3760684
6834.29	1.3648217	0.086982493	0.94008662	0.05991338	1.4518041
6834.295	1.3284423	0.09418392	0.93379574	0.066204262	1.4226262
6834.3	1.3153896	0.089963973	0.93598481	0.06401519	1.4053535
6834.305	1.3278248	0.097733006	0.93144227	0.068557729	1.4255578
6834.31	1.2837288	0.097933991	0.92911875	0.070881254	1.3816628
6834.315	1.343658	0.094078011	0.93456517	0.065434828	1.4377361
6834.32	1.2975834	0.096401783	0.93084447	0.06915553	1.3939852
6834.325	1.3076568	0.10046376	0.928654	0.071345996	1.4081205
6834.33	1.292363	0.10201387	0.92683909	0.073160907	1.3943768
6834.335	1.3197634	0.10755528	0.92464523	0.075354773	1.4273187
6834.34	1.2425949	0.11412511	0.91588161	0.08411839	1.35672
6834.345	1.3235554	0.11076648	0.92277432	0.077225683	1.4343218
6834.35	1.3220551	0.11508531	0.91992062	0.080079382	1.4371404
6834.355	1.3115005	0.12240291	0.91463658	0.085363423	1.4339034
6834.36	1.2437337	0.12054755	0.91164025	0.088359752	1.3642813
6834.365	1.2959375	0.12290005	0.91337976	0.086620243	1.4188375
6834.37	1.3514259	0.12394574	0.91599016	0.084009843	1.4753717
6834.375	1.1877411	0.13039695	0.90107489	0.098925113	1.318138
6834.38	1.2849006	0.12754317	0.90970035	0.090299646	1.4124438
6834.385	1.2747909	0.1328047	0.90565138	0.09434862	1.4075956
6834.39	1.2817187	0.13126252	0.90710243	0.092897569	1.4129812
6834.395	1.2664991	0.14143472	0.89954449	0.10045551	1.4079338
6834.4	1.2417191	0.14717219	0.8940362	0.1059638	1.3888912
6834.405	1.240909	0.14884071	0.89290107	0.10709893	1.3897497
6834.41	1.282048	0.14696031	0.89715923	0.10284077	1.4290083
6834.415	1.2745186	0.14320704	0.89898818	0.10101182	1.4177256
6834.42	1.2911352	0.14963737	0.89614088	0.10385912	1.4407726
6834.425	1.3388887	0.14541895	0.90202911	0.097970893	1.4843077
6834.43	1.2820552	0.15606573	0.89147941	0.10852059	1.4381209
6834.435	1.229943	0.15138725	0.89040474	0.10959526	1.3813303
6834.44	1.209611	0.1603262	0.88296821	0.11703179	1.3699372
6834.445	1.2471167	0.14787006	0.89399895	0.10600105	1.3949868
6834.45	1.2518758	0.14647735	0.8952501	0.1047499	1.3983532
6834.455	1.2724418	0.15039124	0.89430156	0.10569844	1.422833
6834.46	1.2870469	0.14883068	0.89634863	0.10365137	1.4358776
6834.465	1.2359965	0.15350347	0.88952611	0.11047389	1.3895
6834.47	1.2618739	0.14733921	0.89544576	0.10455424	1.4092131
6834.475	1.2496097	0.15205003	0.89152144	0.10847856	1.4016597
6834.48	1.239842	0.15760338	0.88722036	0.11277964	1.3974454
6834.485	1.2658665	0.14420556	0.89773178	0.10226822	1.4100721
6834.49	1.2489861	0.14606415	0.89529829	0.10470171	1.3950503
6834.495	1.258119	0.14566727	0.89623259	0.10376741	1.4037863
6834.5	1.2993308	0.14052591	0.90240285	0.097597153	1.4398567
6834.505	1.2604122	0.14885075	0.89437688	0.10562312	1.409263
6834.51	1.2925722	0.14035684	0.902049	0.097951004	1.4329291
6834.515	1.2717934	0.14031735	0.9006329	0.099367103	1.4121107
6834.52	1.3185388	0.13043459	0.90998138	0.090018624	1.4489734
6834.525	1.2598545	0.13499159	0.90322115	0.096778847	1.3948461
6834.53	1.306225	0.13023632	0.90933531	0.090664694	1.4364613
6834.535	1.2661623	0.13458706	0.90391781	0.096082186	1.4007494
6834.54	1.3407382	0.12850839	0.9125345	0.087465503	1.4692466
6834.545	1.2380413	0.13052776	0.90462464	0.095375355	1.3685691
6834.55	1.332621	0.12824661	0.91221203	0.087787971	1.4608676
6834.555	1.240334	0.1194225	0.91217361	0.087826388	1.3597565
6834.56	1.3431212	0.12167516	0.91693374	0.083066264	1.4647963
6834.565	1.2665868	0.1301926	0.90679087	0.093209131	1.3967794
6834.57	1.3138339	0.12743363	0.91158225	0.088417746	1.4412675
6834.575	1.317367	0.12471316	0.91351857	0.086481435	1.4420802
6834.58	1.3004422	0.12140304	0.91461586	0.085384145	1.4218452
6834.585	1.3020242	0.12473823	0.91257253	0.087427472	1.4267624
6834.59	1.2796752	0.12255784	0.9125981	0.087401904	1.4022331
6834.595	1.2740861	0.12985507	0.90750676	0.092493244	1.4039412
6834.6	1.2700019	0.12335527	0.91146903	0.088530971	1.3933572
6834.605	1.2948625	0.11594389	0.9178173	0.082182705	1.4108064
6834.61	1.3306832	0.11855805	0.91819302	0.081806976	1.4492413
6834.615	1.2471087	0.11406685	0.91619976	0.083800245	1.3611756
6834.62	1.3246619	0.11104268	0.92265632	0.077343681	1.4357045
6834.625	1.2679073	0.12010437	0.9134702	0.0865298	1.3880116
6834.63	1.3032033	0.11988697	0.91575589	0.084244107	1.4230902
6834.635	1.3002402	0.11135415	0.92111463	0.078885374	1.4115944
6834.64	1.2738992	0.12398246	0.9113069	0.088693099	1.3978817
6834.645	1.3449467	0.11235301	0.92290329	0.07709671	1.4572997
6834.65	1.359092	0.10796835	0.92640497	0.073595026	1.4670604
6834.655	1.2488864	0.14492822	0.89602045	0.10397955	1.3938146
6834.66	1.2985729	0.13703959	0.90454277	0.095457228	1.4356125
6834.665	1.1905016	0.18422218	0.86599332	0.13400668	1.3747238
6834.67	0.98561331	0.43056079	0.69596903	0.30403097	1.4161741
6834.675	0.70488843	0.63470369	0.52619631	0.47380369	1.3395921
6834.68	0.83313757	0.5333756	0.60968133	0.39031867	1.3665132
6834.685	1.1915054	0.25453293	0.82397913	0.17602087	1.4460383
6834.69	1.3173617	0.13275015	0.90845523	0.091544767	1.4501118
6834.695	1.240863	0.14302926	0.89664712	0.10335288	1.3838923
6834.7	1.348401	0.12085535	0.91774386	0.082256138	1.4692564
6834.705	1.3188991	0.10594975	0.92564141	0.074358588	1.4248489
6834.71	1.2909155	0.11324374	0.91935121	0.08064879	1.4041592
6834.715	1.3178128	0.10974182	0.92312601	0.076873988	1.4275546
6834.72	1.3061126	0.098511155	0.92986652	0.070133483	1.4046237
6834.725	1.4119199	0.11046195	0.92744137	0.072558635	1.5223819
6834.73	1.3266775	0.10374676	0.92747133	0.072528665	1.4304242
6834.735	1.327681	0.10890026	0.92419484	0.075805155	1.4365812
6834.74	1.4103712	0.11557536	0.92425989	0.075740109	1.5259465
6834.745	1.3012034	0.10373121	0.92616652	0.073833482	1.4049346
6834.75	1.3719379	0.10638276	0.9280381	0.071961901	1.4783206
6834.755	1.2822182	0.11626096	0.91686615	0.083133854	1.3984791
6834.76	1.2982024	0.11147719	0.92092019	0.07907981	1.4096796
6834.765	1.413962	0.1095729	0.92807983	0.071920172	1.5235349
6834.77	1.2890478	0.11949876	0.91516165	0.084838349	1.4085465
6834.775	1.3207506	0.11369338	0.92074045	0.079259548	1.4344439
6834.78	1.3227877	0.11922382	0.91732117	0.082678827	1.4420115
6834.785	1.3430234	0.11547492	0.92082615	0.079173845	1.4584983
6834.79	1.3939058	0.1033313	0.93098535	0.069014653	1.4972371
6834.795	1.310682	0.10936713	0.92298356	0.077016437	1.4200491
6834.8	1.3341794	0.10612896	0.92631511	0.073684893	1.4403083
6834.805	1.3549939	0.11587918	0.92121742	0.078782581	1.4708731
6834.81	1.3611924	0.11046244	0.92493998	0.075060018	1.4716548
6834.815	1.34798	0.11671697	0.92031323	0.079686769	1.4646969
6834.82	1.2925715	0.12577474	0.91132297	0.088677035	1.4183462
6834.825	1.3279476	0.11870358	0.91794596	0.082054041	1.4466512
6834.83	1.3783185	0.12057845	0.91955521	0.080444791	1.4988969
6834.835	1.3072466	0.12237902	0.91439785	0.085602147	1.4296256
6834.84	1.2829238	0.13035571	0.90776368	0.092236324	1.4132796
6834.845	1.3277843	0.12175046	0.91600722	0.083992781	1.4495348
6834.85	1.3115921	0.12958041	0.91008682	0.089913185	1.4411725
6834.855	1.3387349	0.13059243	0.91112094	0.088879062	1.4693273
6834.86	1.2990396	0.12912866	0.90958442	0.090415581	1.4281683
6834.865	1.3210898	0.13722667	0.90590062	0.094099375	1.4583164
6834.87	1.2755859	0.13821367	0.90223956	0.09776044	1.4137996
6834.875	1.2445952	0.15264073	0.89075522	0.10924478	1.3972359
6834.88	1.2946893	0.14497395	0.8993001	0.1006999	1.4396632
6834.885	1.2967722	0.14092015	0.90198171	0.098018294	1.4376923
6834.89	1.2670062	0.14958764	0.8944033	0.1055967	1.4165939
6834.895	1.3165774	0.14213687	0.90256017	0.097439831	1.4587142
6834.9	1.2778931	0.14366578	0.89893786	0.10106214	1.4215589
6834.905	1.2600944	0.14624599	0.89600954	0.10399046	1.4063403
6834.91	1.2571748	0.14906904	0.89399488	0.10600512	1.4062438
6834.915	1.3267248	0.15443715	0.89573243	0.10426757	1.481162
6834.92	1.2508034	0.14764278	0.8944237	0.1055763	1.3984462
6834.925	1.2995678	0.15295944	0.89469427	0.10530573	1.4525272
6834.93	1.3158538	0.15430063	0.89504461	0.10495539	1.4701545
6834.935	1.2543177	0.15530975	0.88982213	0.11017787	1.4096275
6834.94	1.2491964	0.15550938	0.88929398	0.11070602	1.4047058
6834.945	1.2461507	0.16132935	0.88537717	0.11462283	1.4074801
6834.95	1.2328516	0.15334308	0.88937839	0.11062161	1.3861947
6834.955	1.2820027	0.14859066	0.89613354	0.10386646	1.4305933
6834.96	1.2954994	0.14986849	0.89631119	0.10368881	1.4453679
6834.965	1.278571	0.14823116	0.89610952	0.10389048	1.4268022
6834.97	1.2892493	0.14526397	0.8987364	0.1012636	1.4345132
6834.975	1.2213109	0.15510965	0.88730941	0.11269059	1.3764206
6834.98	1.339465	0.14632017	0.90151997	0.098480031	1.4857852
6834.985	1.3443367	0.13636425	0.90790562	0.092094385	1.480701
6834.99	1.2390605	0.14515324	0.89513669	0.10486331	1.3842137
6834.995	1.2942532	0.13429538	0.90599173	0.094008266	1.4285486
6835	1.2201108	0.12411293	0.90766944	0.09233056	1.3442237
6835.005	1.1461707	0.1121361	0.91088334	0.089116662	1.2583068
6835.01	1.2130444	0.11554424	0.91303234	0.086967657	1.3285886
6835.015	1.2011178	0.11805673	0.91050712	0.089492881	1.3191745
6835.02	1.2533046	0.10683688	0.92145164	0.078548358	1.3601415
6835.025	1.2527451	0.10520086	0.92252942	0.077470577	1.357946
6835.03	1.202733	0.10331057	0.92089807	0.079101928	1.3060436
6835.035	1.2217785	0.10422501	0.92139915	0.078600852	1.3260035
6835.04	1.248581	0.10657212	0.92135788	0.07864212	1.3551532
6835.045	1.2897092	0.098038431	0.92935428	0.070645721	1.3877476
6835.05	1.2502696	0.092675671	0.93099073	0.069009269	1.3429453
6835.055	1.1742012	0.0920688	0.92729134	0.072708662	1.26627
6835.06	1.2838416	0.096368121	0.93017864	0.069821362	1.3802097
6835.065	1.2404304	0.093280561	0.93005939	0.069940614	1.3337109
6835.07	1.2757015	0.088658327	0.93501837	0.064981633	1.3643598
6835.075	1.3218354	0.087674524	0.93779787	0.062202131	1.40951
6835.08	1.2494376	0.090369935	0.93255006	0.067449936	1.3398076
6835.085	1.3000811	0.08908182	0.93587374	0.064126257	1.3891629
6835.09	1.3267968	0.080484519	0.94280851	0.057191491	1.4072814
6835.095	1.2974787	0.08797874	0.93649842	0.063501581	1.3854575
6835.1	1.2620496	0.089296995	0.93391999	0.066080009	1.3513466
