#{"prms":{"sampleRate":200000,"runID":0,"groupID":"21-01-19_11-30-46","param":"mwTime","from":1.0,"to":150.0,"by":1.0},"mmexec":"","sender":"MOTMaster","cmd":"scan","id":802981663}
#{"params":{"runID":0.0,"aChn":0.0,"ElapsedTime":0.0,"PLLFreq":6834.51,"ChirpRate":0.05,"ChirpDuration":0.2,"Pulse1Power":22.0,"Pulse1Duration":30.0,"Pulse1Phase":0.0,"Pulse2Power":22.0,"Pulse2Duration":30.0,"Pulse2Phase":0.0,"Pulse3Power":22.0,"Pulse3Duration":30.0,"Pulse3Phase":0.0,"VelPulsePower":22.0,"VelPulseDuration":100.0,"VelPulsePhase":0.0,"IntTime1":10.0,"IntTime2":10.0,"test":0.0,"AnalogClockFrequncy":100000.0,"AnalogLength":0.0,"HSClockFrequency":200000000.0,"2DCoil":9.0,"AnalogClockFrequency":100000.0,"yBiasImg":9.0,"2DAtten":4.15,"YpFreqMOT":6.785,"YmFreqLaunch":6.815,"YmFreqMOT":6.828,"DetFreq":3.8,"DetAttn":0.0,"y2DBias":0.0,"ZmAttenState":9.0,"YmAttenMOT":1.78,"YmAttenImg":2.65,"x2DBias":0.0,"PushAtten":7.5,"XpFreqMOT":6.735,"3DCoil":3.1,"2DFreq":7.11,"2DPushFreq":7.1,"ZmAttenImg":10.0,"mwTime":1.0,"YBiasState":9.9,"yBiasState":9.9,"zBiasMW":9.0,"YBiasMW":9.0,"zBiasInt":9.0,"YpAttenLaunch":2.5,"XpFreqLaunch":6.741,"YpFreqLaunch":6.799,"xBiasInt":9.0,"ZmAttenMOT":3.82,"ZpAttenMOT":6.9,"xBiasMot":-2.5,"yBiasMot":-0.25,"zBiasMot":-0.5,"XBiasState":0.0,"xBiasState":-2.5,"zBiasImg":-0.5,"ZBiasState":-0.5,"YBiasInt":-0.5,"ZpFreqMOT":6.807,"ZmFreqMOT":6.833,"XmFreqLaunch":6.896,"XmFreqMOT":6.901,"XmAttenLaunch":9.0,"ZpAttenState":3.2,"ZpAttenImg":6.7,"XpAttenLaunch":4.0,"XpAttenImg":2.8,"XpAttenMOT":6.2,"YpAttenMOT":6.1,"YpAttenImg":4.0,"XmAttenMOT":3.85,"XmAttenImg":2.5,"xBiasMW":-3.5,"":0.0,"ZmFreqLaunch":6.878,"ZpFreqLaunch":6.762,"rPhase0":0.0,"rPhase":50.0,"PLLFreqX":6834.51,"PLLFreqY":6834.48,"ChirpRateX":0.65,"ChirpRateY":0.32,"MWFreq":6834.682,"xBiasImg":-2.5}}
#{"steps":{"Initialization 1":0.1,"Initialization 2":1.0,"2D3D":200.0,"3Donly":10.0,"B field off":6.0,"Launch":1.0,"Freq Ramp":0.1,"Wait":5.74,"Intensity ramp":0.2,"BSwitch0":1.0,"Step1":0.1,"Step2":0.06,"BSwitch1":2.0,"BSwitch2":1.0,"MW0":0.095,"Wait2":5.71,"VelSel":0.058,"B3":1.0,"Pulse 1":0.03,"Delay":0.1,"Dark2":0.4,"Pulse 2":0.001,"Dark 3":0.5,"Pulse 3":0.03,"Detection B field 1":3.21,"Detection field 2":2.5,"Dwell":2.0,"N2":0.3,"NTot":0.3,"BlowAway2":100.0,"DetWait":1.7,"B2":0.3,"BTot":0.3,"Bg":0.3,"Off":300.0}}


XAxis	N1	N2	RN1	RN2	NTot
1	2.9575485	0.11066529	0.96393169	0.036068311	3.0682138
2	2.8035967	0.11510488	0.96056298	0.039437016	2.9187016
3	2.911756	0.1230073	0.95946725	0.040532751	3.0347633
4	2.8831875	0.126417	0.95799548	0.042004523	3.0096045
5	2.9145313	0.1434051	0.95310396	0.046896037	3.0579364
6	2.9615326	0.14747786	0.95256437	0.047435626	3.1090105
7	2.8914614	0.16318941	0.94657674	0.053423261	3.0546508
8	2.9234701	0.16995257	0.94506002	0.054939976	3.0934226
9	2.9988858	0.17778763	0.9440334	0.055966605	3.1766734
10	2.7512249	0.19436267	0.93401565	0.065984346	2.9455876
11	3.0102959	0.20671332	0.93574363	0.064256366	3.2170092
12	2.9259728	0.2062386	0.93415559	0.065844406	3.1322114
13	3.0269208	0.21106579	0.93481573	0.065184271	3.2379865
14	2.9152837	0.23275715	0.92606286	0.073937145	3.1480409
15	2.9328285	0.22992605	0.92730196	0.072698036	3.1627546
16	2.9912609	0.2451429	0.92425454	0.07574546	3.2364038
17	2.9706667	0.24023482	0.9251815	0.074818495	3.2109016
18	2.8865059	0.24985477	0.92033608	0.079663915	3.1363607
19	2.8615268	0.26394581	0.91555011	0.084449888	3.1254726
20	2.9497108	0.26336609	0.91803306	0.081966943	3.2130768
21	2.7988916	0.27160765	0.91154284	0.088457163	3.0704993
22	3.014253	0.27340355	0.91683938	0.083160619	3.2876565
23	2.7491429	0.28650076	0.90562108	0.094378917	3.0356437
24	2.9279539	0.27881253	0.91305493	0.08694507	3.2067664
25	2.8754494	0.28786542	0.90899881	0.091001192	3.1633148
26	2.9745524	0.28304954	0.91311107	0.086888927	3.2576019
27	2.8965157	0.30359859	0.90512883	0.09487117	3.2001143
28	2.8095873	0.28609732	0.90758189	0.092418112	3.0956846
29	2.9631092	0.29494244	0.90947275	0.090527247	3.2580516
30	2.797591	0.28665539	0.90705821	0.092941795	3.0842464
31	2.946367	0.28314161	0.91232672	0.087673279	3.2295086
32	2.8147185	0.29918535	0.90391953	0.096080473	3.1139038
33	2.9103361	0.28972569	0.90946247	0.09053753	3.2000618
34	2.8976817	0.27573773	0.91311022	0.086889784	3.1734195
35	2.8198218	0.28913388	0.90699968	0.093000322	3.1089557
36	2.873313	0.28221086	0.91056608	0.089433918	3.1555239
37	2.9256644	0.28119411	0.91231477	0.087685227	3.2068585
38	2.7964851	0.2914015	0.90563076	0.094369238	3.0878866
39	2.9862722	0.28146263	0.91386614	0.086133863	3.2677349
40	2.8483528	0.28448904	0.90919138	0.09080862	3.1328418
41	2.992247	0.26890615	0.91754262	0.082457383	3.2611531
42	2.95201	0.27306539	0.91533054	0.08466946	3.2250754
43	2.938788	0.27320329	0.91494271	0.085057293	3.2119913
44	2.946843	0.27541348	0.91452776	0.085472239	3.2222565
45	3.0081764	0.27521892	0.91617856	0.083821441	3.2833953
46	3.0129144	0.26749929	0.91845562	0.081544376	3.2804137
47	3.0365835	0.26988155	0.91837762	0.081622383	3.306465
48	2.8850944	0.27133993	0.91403594	0.085964065	3.1564344
49	3.0279182	0.26866269	0.91850263	0.081497373	3.2965809
50	2.9258888	0.28370287	0.9116078	0.088392198	3.2095917
51	2.8579858	0.27910063	0.9110319	0.088968103	3.1370864
52	2.932208	0.26831683	0.91616474	0.08383526	3.2005248
53	2.9217127	0.26522541	0.91677736	0.083222641	3.1869381
54	2.9332491	0.27258117	0.9149733	0.0850267	3.2058303
55	2.8903147	0.28637185	0.90985203	0.090147974	3.1766865
56	3.0418577	0.2689267	0.91877251	0.081227487	3.3107844
57	2.8644207	0.26406482	0.9155934	0.084406598	3.1284856
58	2.9470272	0.26540302	0.91738248	0.082617521	3.2124302
59	2.9234226	0.27896513	0.9128884	0.087111602	3.2023878
60	2.9062101	0.25906028	0.9181554	0.081844598	3.1652704
61	2.869221	0.27344958	0.91298815	0.087011849	3.1426706
62	2.966647	0.25979694	0.91947886	0.08052114	3.2264439
63	2.9696772	0.27743339	0.91455992	0.08544008	3.2471106
64	2.8517612	0.26267144	0.91565994	0.08434006	3.1144327
65	2.927346	0.27794391	0.91328587	0.086714125	3.2052899
66	2.9176236	0.27489184	0.91389491	0.086105094	3.1925154
67	2.9188015	0.28103484	0.91217212	0.08782788	3.1998363
68	2.8485455	0.27916127	0.9107457	0.089254296	3.1277068
69	2.9712161	0.26299703	0.91868284	0.08131716	3.2342132
70	2.8954562	0.28407969	0.91065372	0.089346277	3.1795358
71	2.8677433	0.2817398	0.91054411	0.089455885	3.1494831
72	3.0174953	0.27672794	0.91599599	0.084004005	3.2942232
73	2.805956	0.28739809	0.90709176	0.092908242	3.0933541
74	2.9044486	0.27261726	0.91419213	0.085807874	3.1770658
75	2.9158986	0.2870816	0.91037047	0.089629525	3.2029802
76	2.9836629	0.28848352	0.91183661	0.08816339	3.2721465
77	2.8511122	0.28746362	0.90840953	0.091590466	3.1385759
78	2.931233	0.2867002	0.91090548	0.089094516	3.2179332
79	2.8836684	0.29279368	0.90782397	0.092176035	3.1764621
80	2.8692434	0.29997236	0.90534808	0.094651919	3.1692158
81	2.829013	0.29718285	0.90493787	0.095062134	3.1261959
82	2.9735794	0.2969127	0.90921467	0.090785326	3.2704921
83	2.8586958	0.30650913	0.90316294	0.096837057	3.1652049
84	2.8684442	0.29716214	0.90612789	0.093872106	3.1656064
85	2.8273965	0.30082501	0.90383513	0.096164869	3.1282215
86	2.8898709	0.29970657	0.90603565	0.093964349	3.1895775
87	2.8745576	0.3039894	0.90436215	0.09563785	3.178547
88	2.8289286	0.30316181	0.90320783	0.096792166	3.1320904
89	2.9953522	0.29464871	0.91044115	0.089558852	3.2900009
90	2.8848974	0.31653596	0.9011268	0.0988732	3.2014333
91	2.8624806	0.30746236	0.90300697	0.096993025	3.1699429
92	2.8659373	0.31480922	0.90102662	0.098973376	3.1807465
93	2.8444558	0.30602673	0.90286354	0.097136463	3.1504825
94	2.8722163	0.3067646	0.90350222	0.09649778	3.1789809
95	2.9037498	0.30264151	0.90561304	0.094386956	3.2063913
96	2.8078051	0.31395843	0.89942914	0.10057086	3.1217635
97	2.8858976	0.30091824	0.90557401	0.09442599	3.1868158
98	2.9018051	0.3110517	0.90318532	0.096814678	3.2128569
99	2.9775835	0.30595169	0.90682247	0.093177528	3.2835352
100	2.9049555	0.29811379	0.90692871	0.093071287	3.2030693
101	2.9420484	0.31668551	0.90281946	0.097180536	3.2587339
102	2.8200882	0.31874255	0.89845182	0.10154818	3.1388308
