#{"prms":{"sampleRate":200000,"runID":0,"groupID":"21-01-19_11-21-25","param":"PLLFreq","from":6834.1,"to":6835.1,"by":0.005},"mmexec":"","sender":"MOTMaster","cmd":"scan","id":663947792}
#{"params":{"runID":0.0,"aChn":0.0,"ElapsedTime":0.0,"PLLFreq":6834.1,"ChirpRate":0.05,"ChirpDuration":0.2,"Pulse1Power":22.0,"Pulse1Duration":30.0,"Pulse1Phase":0.0,"Pulse2Power":22.0,"Pulse2Duration":30.0,"Pulse2Phase":0.0,"Pulse3Power":22.0,"Pulse3Duration":30.0,"Pulse3Phase":0.0,"VelPulsePower":22.0,"VelPulseDuration":100.0,"VelPulsePhase":0.0,"IntTime1":10.0,"IntTime2":10.0,"test":0.0,"AnalogClockFrequncy":100000.0,"AnalogLength":0.0,"HSClockFrequency":200000000.0,"2DCoil":9.0,"AnalogClockFrequency":100000.0,"yBiasImg":9.0,"2DAtten":4.15,"YpFreqMOT":6.785,"YmFreqLaunch":6.815,"YmFreqMOT":6.828,"DetFreq":3.8,"DetAttn":0.0,"y2DBias":0.0,"ZmAttenState":9.0,"YmAttenMOT":1.78,"YmAttenImg":2.65,"x2DBias":0.0,"PushAtten":7.5,"XpFreqMOT":6.735,"3DCoil":3.1,"2DFreq":7.11,"2DPushFreq":7.1,"ZmAttenImg":10.0,"mwTime":10.0,"YBiasState":9.9,"yBiasState":9.9,"zBiasMW":9.0,"YBiasMW":9.0,"zBiasInt":9.0,"YpAttenLaunch":2.5,"XpFreqLaunch":6.741,"YpFreqLaunch":6.799,"xBiasInt":9.0,"ZmAttenMOT":3.82,"ZpAttenMOT":6.9,"xBiasMot":-2.5,"yBiasMot":-0.25,"zBiasMot":-0.5,"XBiasState":0.0,"xBiasState":-2.5,"zBiasImg":-0.5,"ZBiasState":-0.5,"YBiasInt":-0.5,"ZpFreqMOT":6.807,"ZmFreqMOT":6.833,"XmFreqLaunch":6.896,"XmFreqMOT":6.901,"XmAttenLaunch":9.0,"ZpAttenState":3.2,"ZpAttenImg":6.7,"XpAttenLaunch":4.0,"XpAttenImg":2.8,"XpAttenMOT":6.2,"YpAttenMOT":6.1,"YpAttenImg":4.0,"XmAttenMOT":3.85,"XmAttenImg":2.5,"xBiasMW":-3.5,"":0.0,"ZmFreqLaunch":6.878,"ZpFreqLaunch":6.762,"rPhase0":0.0,"rPhase":50.0,"PLLFreqX":6834.51,"PLLFreqY":6834.48,"ChirpRateX":0.65,"ChirpRateY":0.32,"MWFreq":6834.682,"xBiasImg":-2.5}}
#{"steps":{"Initialization 1":0.1,"Initialization 2":1.0,"2D3D":200.0,"3Donly":10.0,"B field off":6.0,"Launch":1.0,"Freq Ramp":0.1,"Wait":5.74,"Intensity ramp":0.2,"BSwitch0":1.0,"Step1":0.1,"Step2":0.06,"BSwitch1":2.0,"BSwitch2":1.0,"MW0":0.095,"Wait2":70.71,"VelSel":0.058,"B3":1.0,"Pulse 1":0.03,"Delay":0.1,"Dark2":0.4,"Pulse 2":0.07,"Dark 3":0.5,"Pulse 3":0.03,"Detection B field 1":3.21,"Detection field 2":2.5,"Dwell":2.0,"N2":0.3,"NTot":0.3,"BlowAway2":100.0,"DetWait":1.7,"B2":0.3,"BTot":0.3,"Bg":0.3,"Off":300.0}}


XAxis	N1	N2	RN1	RN2	NTot
6834.1	0.19246887	0.01053479	0.94810542	0.051894579	0.20300366
6834.105	0.19678862	0.012134361	0.94191945	0.058080546	0.20892298
6834.11	0.19708259	0.0061772485	0.9696091	0.030390896	0.20325983
6834.115	0.19399501	0.007003271	0.96515756	0.034842443	0.20099828
6834.12	0.20786821	0.012575741	0.94295266	0.057047339	0.22044395
6834.125	0.19929464	0.0076482325	0.96304182	0.036958182	0.20694288
6834.13	0.20118149	0.014331886	0.93349886	0.066501144	0.21551337
6834.135	0.20263364	0.013088706	0.93932615	0.06067385	0.21572235
6834.14	0.20121459	0.008993405	0.95721664	0.042783364	0.21020799
6834.145	0.20697436	0.013509671	0.93872721	0.061272788	0.22048403
6834.15	0.20558038	0.0091533155	0.95737364	0.042626358	0.2147337
6834.155	0.20703552	0.01205267	0.94498713	0.055012869	0.21908819
6834.16	0.20924678	0.013947847	0.93750814	0.062491857	0.22319463
6834.165	0.21465026	0.014367207	0.93726589	0.06273411	0.22901747
6834.17	0.21567913	0.012484174	0.94528404	0.054715957	0.2281633
6834.175	0.21990245	0.013463305	0.94230814	0.05769186	0.23336576
6834.18	0.21941499	0.010004801	0.95639085	0.043609145	0.22941979
6834.185	0.20464872	0.013854375	0.93659415	0.063405854	0.21850309
6834.19	0.21446296	0.014246709	0.93770832	0.062291677	0.22870967
6834.195	0.21889084	0.010770286	0.95310358	0.046896423	0.22966113
6834.2	0.2175466	0.010606888	0.95350986	0.046490143	0.22815348
6834.205	0.20697002	0.014905565	0.93282017	0.067179833	0.22187558
6834.21	0.21441254	0.007000161	0.9683841	0.031615897	0.2214127
6834.215	0.21441465	0.008336433	0.96257512	0.037424882	0.22275108
6834.22	0.19814064	0.012229962	0.94186468	0.058135319	0.2103706
6834.225	0.20893627	0.014427958	0.93540614	0.064593861	0.22336423
6834.23	0.21391723	0.010878816	0.95160584	0.04839416	0.22479605
6834.235	0.21068791	0.013197727	0.94105148	0.058948517	0.22388564
6834.24	0.21680582	0.0094966455	0.95803561	0.041964392	0.22630247
6834.245	0.20892084	0.007638507	0.96472788	0.03527212	0.21655934
6834.25	0.21509224	0.012207043	0.94629529	0.053704712	0.22729928
6834.255	0.21624934	0.007235299	0.96762507	0.032374928	0.22348464
6834.26	0.20639568	0.008795682	0.95912623	0.040873768	0.21519136
6834.265	0.21617391	0.009666979	0.95719562	0.04280438	0.22584089
6834.27	0.21225823	0.004347383	0.9799295	0.0200705	0.21660562
6834.275	0.2130312	0.0084394035	0.9618938	0.038106202	0.2214706
6834.28	0.21693432	0.014026784	0.93926776	0.060732236	0.2309611
6834.285	0.20358335	0.014386475	0.93399786	0.066002139	0.21796982
6834.29	0.20691249	0.0096629085	0.95538317	0.044616833	0.2165754
6834.295	0.21460268	0.011762345	0.94803815	0.051961847	0.22636503
6834.3	0.20348975	0.008154207	0.96147205	0.038527947	0.21164396
6834.305	0.20520839	0.010778917	0.95009467	0.049905327	0.2159873
6834.31	0.20972286	0.017126708	0.92450192	0.075498082	0.22684957
6834.315	0.21005328	0.01006284	0.95428395	0.04571605	0.22011612
6834.32	0.20906088	0.015576764	0.93065826	0.069341735	0.22463764
6834.325	0.2065646	0.014078107	0.93619501	0.063804993	0.22064271
6834.33	0.20922956	0.015626751	0.93050339	0.06949661	0.22485631
6834.335	0.20459526	0.017805295	0.91994042	0.080059578	0.22240056
6834.34	0.20262528	0.010945294	0.94875093	0.051249072	0.21357057
6834.345	0.20979926	0.016162676	0.92847169	0.071528311	0.22596193
6834.35	0.22060796	0.017274048	0.92738397	0.072616034	0.237882
6834.355	0.20762885	0.011468042	0.94765767	0.052342332	0.2190969
6834.36	0.21597396	0.016750826	0.92802303	0.071976974	0.23272479
6834.365	0.20205725	0.010878063	0.94891377	0.051086233	0.21293531
6834.37	0.19981458	0.012661953	0.94040776	0.059592241	0.21247654
6834.375	0.20950891	0.013556512	0.9392263	0.060773702	0.22306542
6834.38	0.2077827	0.011569845	0.94725457	0.052745434	0.21935254
6834.385	0.20300813	0.018722812	0.91556067	0.084439328	0.22173094
6834.39	0.20382806	0.018592886	0.91640677	0.08359323	0.22242095
6834.395	0.20424861	0.019732627	0.91190054	0.088099461	0.22398124
6834.4	0.21151115	0.019699263	0.91479941	0.085200588	0.23121041
6834.405	0.2145311	0.018867378	0.91916238	0.080837624	0.23339847
6834.41	0.21671737	0.018609041	0.92092243	0.07907757	0.23532641
6834.415	0.20858731	0.015259408	0.931831	0.068169003	0.22384672
6834.42	0.2063005	0.015406599	0.93050922	0.06949078	0.2217071
6834.425	0.21273965	0.013782541	0.93915589	0.06084411	0.22652219
6834.43	0.2070984	0.01379144	0.93756417	0.062435826	0.22088984
6834.435	0.20927504	0.017134265	0.92432173	0.075678272	0.22640931
6834.44	0.2158853	0.017060095	0.92676354	0.073236457	0.23294539
6834.445	0.20106086	0.022189831	0.90060577	0.099394232	0.22325069
6834.45	0.19971806	0.015468612	0.92811538	0.071884617	0.21518667
6834.455	0.20047659	0.019895855	0.90971714	0.090282863	0.22037244
6834.46	0.211026	0.017443929	0.92364891	0.076351093	0.22846993
6834.465	0.20809886	0.01994607	0.91253448	0.087465523	0.22804493
6834.47	0.21113991	0.020363979	0.91203612	0.087963876	0.23150389
6834.475	0.21153141	0.016078799	0.92935818	0.070641818	0.22761021
6834.48	0.20497504	0.021306902	0.90583914	0.094160857	0.22628195
6834.485	0.2034867	0.016529073	0.92487324	0.075126765	0.22001577
6834.49	0.20335059	0.014835541	0.93200512	0.067994882	0.21818613
6834.495	0.20395482	0.013529011	0.93779303	0.062206972	0.21748383
6834.5	0.19778059	0.013014141	0.93826154	0.061738455	0.21079473
6834.505	0.2034467	0.018629303	0.91611294	0.083887058	0.222076
6834.51	0.20314525	0.012640786	0.94141982	0.058580185	0.21578604
6834.515	0.20619719	0.013524222	0.93844832	0.061551679	0.21972141
6834.52	0.2006823	0.019800406	0.9101952	0.089804804	0.22048271
6834.525	0.21516202	0.01766216	0.92413949	0.075860507	0.23282418
6834.53	0.20072626	0.016297443	0.92490478	0.07509522	0.2170237
6834.535	0.20732986	0.01160121	0.94700976	0.052990241	0.21893107
6834.54	0.20603822	0.01379715	0.93723872	0.062761281	0.21983537
6834.545	0.20588505	0.01139983	0.9475351	0.052464901	0.21728488
6834.55	0.21354726	0.011709059	0.94801895	0.051981047	0.22525631
6834.555	0.2087502	0.015729119	0.92993066	0.070069344	0.22447932
6834.56	0.21648289	0.018532062	0.92114518	0.078854818	0.23501495
6834.565	0.2074082	0.01317899	0.94025496	0.059745037	0.22058719
6834.57	0.20133241	0.019065158	0.91349652	0.086503484	0.22039757
6834.575	0.21138537	0.015761255	0.93061198	0.069388021	0.22714663
6834.58	0.20705603	0.017603276	0.92164457	0.078355426	0.2246593
6834.585	0.20570022	0.014505031	0.9341295	0.065870504	0.22020525
6834.59	0.20209261	0.013083955	0.93919433	0.060805668	0.21517657
6834.595	0.20978311	0.010736244	0.95131383	0.048686174	0.22051935
6834.6	0.21284793	0.01158532	0.94837966	0.051620337	0.22443325
6834.605	0.20578001	0.012538043	0.94256983	0.05743017	0.21831806
6834.61	0.21280837	0.0128848	0.9429101	0.057089896	0.22569317
6834.615	0.20470006	0.013568083	0.93783755	0.062162451	0.21826814
6834.62	0.21016888	0.017805335	0.92189759	0.078102408	0.22797421
6834.625	0.20266816	0.012386236	0.94240417	0.057595829	0.21505439
6834.63	0.20730183	0.017178108	0.92347598	0.07652402	0.22447994
6834.635	0.20433487	0.016439825	0.92553574	0.074464262	0.22077469
6834.64	0.20791445	0.016764399	0.92538506	0.074614938	0.22467885
6834.645	0.20870468	0.017950658	0.92080196	0.079198037	0.22665534
6834.65	0.20257512	0.01199671	0.94409001	0.055909993	0.21457183
6834.655	0.20045832	0.016799457	0.92267501	0.077324994	0.21725778
6834.66	0.20427385	0.016313802	0.9260439	0.073956097	0.22058766
6834.665	0.20755887	0.014636517	0.93412772	0.065872281	0.22219539
6834.67	0.18960823	0.032517227	0.85360874	0.14639126	0.22212546
6834.675	0.13674814	0.064068405	0.68096052	0.31903948	0.20081654
6834.68	0.12650944	0.085520142	0.59665938	0.40334062	0.21202958
6834.685	0.14754828	0.05877418	0.71513436	0.28486564	0.20632246
6834.69	0.18628844	0.037739943	0.83153946	0.16846054	0.22402838
6834.695	0.19705243	0.018977814	0.91215205	0.087847948	0.21603024
6834.7	0.20626855	0.019829546	0.91229671	0.087703287	0.22609809
6834.705	0.21374469	0.012620752	0.94424612	0.055753879	0.22636544
6834.71	0.20546665	0.012585354	0.94228279	0.057717211	0.218052
6834.715	0.20843337	0.011408481	0.94810596	0.051894036	0.21984185
6834.72	0.20430345	0.012188493	0.94370002	0.056299983	0.21649194
6834.725	0.20382959	0.013192751	0.93921017	0.060789827	0.21702234
6834.73	0.21274749	0.012109085	0.94614752	0.053852484	0.22485657
6834.735	0.21217649	0.009562915	0.95687318	0.043126819	0.2217394
6834.74	0.20877052	0.018286107	0.91946455	0.080535446	0.22705662
6834.745	0.20608847	0.01691662	0.92414245	0.075857552	0.22300509
6834.75	0.21003405	0.011538783	0.9479233	0.052076704	0.22157284
6834.755	0.21980532	0.017312142	0.92698918	0.073010824	0.23711746
6834.76	0.20556966	0.011528621	0.94689677	0.053103233	0.21709828
6834.765	0.21444452	0.010332054	0.95403412	0.045965884	0.22477658
6834.77	0.20626844	0.011169178	0.94863272	0.051367276	0.21743761
6834.775	0.21700592	0.009819654	0.95670835	0.043291652	0.22682558
6834.78	0.19514408	0.013217178	0.93656605	0.063433952	0.20836126
6834.785	0.20958861	0.012530861	0.94358504	0.056414959	0.22211947
6834.79	0.20529127	0.011438411	0.94722268	0.052777317	0.21672968
6834.795	0.20937434	0.016339964	0.92760776	0.072392241	0.2257143
6834.8	0.20751501	0.011473773	0.94760566	0.052394339	0.21898878
6834.805	0.21188003	0.010671728	0.95204833	0.047951665	0.22255176
6834.81	0.21218823	0.014368039	0.9365807	0.063419296	0.22655627
6834.815	0.20606942	0.012203724	0.94408967	0.055910334	0.21827314
6834.82	0.20778275	0.012568483	0.9429616	0.057038404	0.22035124
6834.825	0.21346652	0.017938105	0.92248165	0.077518348	0.23140463
6834.83	0.21231101	0.012422651	0.94472278	0.055277215	0.22473366
6834.835	0.20051947	0.01744717	0.91995486	0.080045139	0.21796664
6834.84	0.20536538	0.017660556	0.92081389	0.079186109	0.22302593
6834.845	0.20761892	0.014491818	0.93475409	0.065245911	0.22211074
6834.85	0.19955176	0.019880795	0.90939906	0.090600937	0.21943255
6834.855	0.21432896	0.016441767	0.92875281	0.071247194	0.23077073
6834.86	0.20495274	0.018561429	0.91695637	0.083043631	0.22351417
6834.865	0.20957046	0.019496056	0.9148891	0.085110896	0.22906651
6834.87	0.20172912	0.012502475	0.94164038	0.058359621	0.21423159
6834.875	0.20728204	0.015559819	0.93017551	0.069824489	0.22284186
6834.88	0.20420116	0.014332678	0.93441438	0.065585625	0.21853383
6834.885	0.20718331	0.016095084	0.92791473	0.072085271	0.22327839
6834.89	0.20728523	0.01466008	0.93394733	0.066052668	0.2219453
6834.895	0.20209437	0.01616043	0.92595613	0.074043871	0.2182548
6834.9	0.20499397	0.014806118	0.93263825	0.067361746	0.21980008
6834.905	0.21655778	0.017085804	0.92687236	0.073127641	0.23364358
6834.91	0.20812301	0.016256598	0.92754869	0.072451314	0.22437961
6834.915	0.20174925	0.021167838	0.90504165	0.094958346	0.22291708
6834.92	0.19757354	0.018568005	0.91409331	0.085906692	0.21614154
6834.925	0.20284609	0.016246947	0.92584453	0.07415547	0.21909304
6834.93	0.20138602	0.017122711	0.92163832	0.078361681	0.21850873
6834.935	0.2046405	0.022239288	0.90197766	0.098022342	0.22687979
6834.94	0.20935694	0.01612967	0.92846728	0.071532716	0.22548661
6834.945	0.20630832	0.019425432	0.91394538	0.086054617	0.22573375
6834.95	0.20128207	0.020556462	0.90733593	0.092664073	0.22183853
6834.955	0.20099898	0.01740595	0.92030423	0.079695773	0.21840493
6834.96	0.20285406	0.019952249	0.91045025	0.089549748	0.22280631
6834.965	0.20009596	0.018641272	0.91477778	0.085222217	0.21873723
6834.97	0.20592241	0.017868364	0.92015594	0.079844057	0.22379078
6834.975	0.21273693	0.020172704	0.91338828	0.086611717	0.23290964
6834.98	0.198463	0.015905636	0.92580241	0.074197586	0.21436864
6834.985	0.20065876	0.014965992	0.93059242	0.069407579	0.21562475
6834.99	0.2011473	0.020263629	0.90847954	0.091520456	0.22141093
6834.995	0.20143985	0.015739694	0.92752681	0.07247319	0.21717954
6835	0.20850995	0.012572253	0.94313313	0.056866867	0.22108221
6835.005	0.20509895	0.011468308	0.94704505	0.052954948	0.21656726
6835.01	0.21358614	0.011690267	0.94810701	0.051892991	0.22527641
6835.015	0.20925268	0.010560519	0.95195685	0.048043149	0.2198132
6835.02	0.20382737	0.014050835	0.9355106	0.0644894	0.2178782
6835.025	0.21413631	0.012789144	0.94364165	0.056358347	0.22692546
6835.03	0.20224595	0.013129814	0.93903764	0.060962359	0.21537576
6835.035	0.19530531	0.0093876995	0.95413766	0.045862336	0.20469301
6835.04	0.20279096	0.016370931	0.92530211	0.074697893	0.21916189
6835.045	0.20713357	0.016884219	0.92463001	0.075369992	0.22401779
6835.05	0.21264114	0.012082093	0.94623568	0.053764325	0.22472324
6835.055	0.19882218	0.013435748	0.93670084	0.063299156	0.21225793
6835.06	0.20964935	0.012794894	0.94248045	0.057519553	0.22244425
6835.065	0.21267552	0.009244186	0.95834446	0.041655543	0.22191971
6835.07	0.20499794	0.011673794	0.94612221	0.053877788	0.21667174
6835.075	0.21657397	0.016313577	0.92995084	0.070049158	0.23288755
6835.08	0.20427936	0.0088981045	0.95825964	0.041740362	0.21317746
6835.085	0.212447	0.011050528	0.95055638	0.049443623	0.22349753
6835.09	0.2090831	0.010589018	0.95179626	0.048203741	0.21967212
6835.095	0.21635212	0.010207897	0.95494396	0.045056039	0.22656002
6835.1	0.20746135	0.0096319765	0.95563209	0.044367907	0.21709333
